SpectraSuite Data File
++++++++++++++++++++++++++++++++++++
Date: Thu Oct 13 11:15:51 CDT 2011
User: Helimak
Dark Spectrum Present: No
Reference Spectrum Present: No
Number of Sampled Component Spectra: 1
Spectrometers: USB2G37154
Integration Time (usec): 20000 (USB2G37154)
Spectra Averaged: 1 (USB2G37154)
Boxcar Smoothing: 0 (USB2G37154)
Correct for Electrical Dark: No (USB2G37154)
Strobe/Lamp Enabled: No (USB2G37154)
Correct for Detector Non-linearity: No (USB2G37154)
Correct for Stray Light: No (USB2G37154)
Number of Pixels in Processed Spectrum: 651
>>>>>Begin Processed Spectral Data<<<<<
350.00	206.21
351.00	202.24
352.00	201.88
353.00	202.15
354.00	200.38
355.00	200.17
356.00	199.11
357.00	203.73
358.00	202.48
359.00	203.75
360.00	203.54
361.00	201.83
362.00	203.46
363.00	202.16
364.00	204.63
365.00	202.89
366.00	204.60
367.00	201.10
368.00	206.45
369.00	200.01
370.00	199.00
371.00	203.26
372.00	201.33
373.00	204.10
374.00	202.88
375.00	205.51
376.00	205.84
377.00	202.76
378.00	202.77
379.00	207.88
380.00	201.46
381.00	206.69
382.00	203.54
383.00	204.71
384.00	203.49
385.00	206.21
386.00	204.07
387.00	202.91
388.00	202.47
389.00	204.80
390.00	204.83
391.00	204.51
392.00	207.26
393.00	206.67
394.00	205.16
395.00	207.13
396.00	203.01
397.00	209.89
398.00	206.51
399.00	208.09
400.00	205.99
401.00	204.58
402.00	207.68
403.00	202.21
404.00	207.29
405.00	205.14
406.00	205.00
407.00	205.01
408.00	208.44
409.00	210.08
410.00	206.16
411.00	204.42
412.00	203.13
413.00	205.98
414.00	203.29
415.00	203.17
416.00	204.46
417.00	204.90
418.00	206.15
419.00	204.06
420.00	204.70
421.00	206.86
422.00	203.76
423.00	203.04
424.00	201.50
425.00	202.60
426.00	207.17
427.00	206.01
428.00	203.12
429.00	204.24
430.00	200.86
431.00	205.36
432.00	204.73
433.00	203.95
434.00	203.00
435.00	207.95
436.00	208.39
437.00	208.43
438.00	203.08
439.00	201.25
440.00	206.13
441.00	208.15
442.00	205.31
443.00	207.67
444.00	203.41
445.00	202.91
446.00	206.81
447.00	208.66
448.00	208.58
449.00	200.95
450.00	205.82
451.00	204.75
452.00	209.04
453.00	204.04
454.00	206.29
455.00	203.32
456.00	202.43
457.00	205.50
458.00	208.14
459.00	202.86
460.00	205.97
461.00	205.41
462.00	203.48
463.00	202.92
464.00	206.08
465.00	206.33
466.00	205.36
467.00	201.37
468.00	206.05
469.00	205.58
470.00	204.56
471.00	205.75
472.00	205.10
473.00	206.51
474.00	202.90
475.00	198.66
476.00	208.07
477.00	206.21
478.00	208.46
479.00	212.15
480.00	206.81
481.00	206.13
482.00	204.13
483.00	208.73
484.00	205.49
485.00	204.14
486.00	209.02
487.00	205.26
488.00	204.53
489.00	205.97
490.00	209.19
491.00	205.36
492.00	211.18
493.00	211.00
494.00	207.95
495.00	204.40
496.00	204.08
497.00	205.07
498.00	206.91
499.00	205.70
500.00	203.92
501.00	205.73
502.00	203.00
503.00	212.91
504.00	202.63
505.00	205.29
506.00	197.89
507.00	208.48
508.00	209.24
509.00	200.19
510.00	203.02
511.00	206.02
512.00	206.63
513.00	206.59
514.00	205.16
515.00	204.59
516.00	202.18
517.00	207.97
518.00	203.28
519.00	204.04
520.00	202.08
521.00	204.92
522.00	208.08
523.00	204.50
524.00	209.52
525.00	205.00
526.00	203.25
527.00	199.46
528.00	205.92
529.00	203.81
530.00	204.03
531.00	203.30
532.00	203.99
533.00	206.20
534.00	203.39
535.00	209.03
536.00	203.32
537.00	205.06
538.00	210.52
539.00	207.04
540.00	208.36
541.00	209.21
542.00	217.07
543.00	221.52
544.00	217.36
545.00	211.50
546.00	214.18
547.00	209.84
548.00	206.83
549.00	204.86
550.00	206.77
551.00	205.00
552.00	208.89
553.00	203.97
554.00	208.48
555.00	199.80
556.00	203.46
557.00	205.11
558.00	202.70
559.00	204.54
560.00	207.80
561.00	199.63
562.00	200.22
563.00	206.43
564.00	207.79
565.00	205.15
566.00	204.39
567.00	208.11
568.00	200.86
569.00	204.72
570.00	200.54
571.00	205.30
572.00	201.26
573.00	198.17
574.00	207.99
575.00	204.59
576.00	204.22
577.00	206.83
578.00	203.06
579.00	204.88
580.00	207.60
581.00	201.85
582.00	204.15
583.00	207.56
584.00	203.93
585.00	207.69
586.00	205.22
587.00	206.03
588.00	204.80
589.00	203.24
590.00	204.78
591.00	206.87
592.00	207.86
593.00	205.35
594.00	203.01
595.00	205.72
596.00	203.28
597.00	204.52
598.00	205.83
599.00	202.33
600.00	205.92
601.00	203.94
602.00	200.01
603.00	202.72
604.00	206.96
605.00	204.06
606.00	201.75
607.00	201.53
608.00	204.69
609.00	205.96
610.00	208.44
611.00	212.75
612.00	213.01
613.00	201.04
614.00	207.93
615.00	205.74
616.00	206.64
617.00	207.98
618.00	204.80
619.00	205.50
620.00	207.29
621.00	208.08
622.00	204.81
623.00	206.08
624.00	203.26
625.00	207.76
626.00	204.96
627.00	201.05
628.00	202.95
629.00	206.07
630.00	206.45
631.00	204.94
632.00	206.24
633.00	206.11
634.00	199.97
635.00	203.96
636.00	202.00
637.00	202.99
638.00	204.27
639.00	202.99
640.00	205.91
641.00	204.31
642.00	201.84
643.00	205.43
644.00	204.53
645.00	202.24
646.00	206.90
647.00	203.90
648.00	206.69
649.00	202.29
650.00	204.27
651.00	207.82
652.00	206.06
653.00	206.54
654.00	201.34
655.00	203.20
656.00	204.58
657.00	203.90
658.00	205.00
659.00	202.15
660.00	204.40
661.00	201.68
662.00	201.11
663.00	199.63
664.00	206.00
665.00	204.78
666.00	205.42
667.00	201.84
668.00	204.57
669.00	201.30
670.00	205.40
671.00	211.11
672.00	205.11
673.00	202.00
674.00	199.15
675.00	204.97
676.00	206.30
677.00	207.24
678.00	203.96
679.00	207.84
680.00	204.68
681.00	205.12
682.00	200.41
683.00	204.68
684.00	205.21
685.00	205.03
686.00	202.94
687.00	204.64
688.00	201.80
689.00	203.25
690.00	203.98
691.00	197.37
692.00	203.83
693.00	207.86
694.00	204.22
695.00	208.96
696.00	202.00
697.00	206.07
698.00	201.86
699.00	206.64
700.00	205.69
701.00	204.68
702.00	204.39
703.00	201.41
704.00	207.49
705.00	201.90
706.00	202.13
707.00	202.67
708.00	205.76
709.00	208.71
710.00	203.83
711.00	203.28
712.00	206.03
713.00	205.18
714.00	203.69
715.00	204.25
716.00	205.48
717.00	205.47
718.00	201.02
719.00	201.56
720.00	199.79
721.00	204.82
722.00	202.05
723.00	201.74
724.00	199.56
725.00	206.12
726.00	203.88
727.00	203.04
728.00	201.11
729.00	205.40
730.00	205.26
731.00	204.30
732.00	204.45
733.00	202.66
734.00	207.46
735.00	196.96
736.00	199.26
737.00	203.62
738.00	205.85
739.00	199.73
740.00	205.81
741.00	204.16
742.00	205.06
743.00	198.98
744.00	202.31
745.00	206.05
746.00	203.92
747.00	201.84
748.00	204.07
749.00	205.09
750.00	203.71
751.00	200.15
752.00	203.48
753.00	200.03
754.00	203.08
755.00	207.18
756.00	205.02
757.00	199.87
758.00	202.67
759.00	203.08
760.00	202.79
761.00	207.15
762.00	202.44
763.00	199.72
764.00	203.99
765.00	207.08
766.00	204.89
767.00	205.36
768.00	203.69
769.00	203.04
770.00	206.59
771.00	204.69
772.00	200.85
773.00	202.93
774.00	202.87
775.00	209.19
776.00	204.40
777.00	201.07
778.00	204.02
779.00	204.36
780.00	208.76
781.00	202.33
782.00	204.42
783.00	206.60
784.00	207.83
785.00	206.35
786.00	205.35
787.00	205.26
788.00	200.88
789.00	201.02
790.00	205.70
791.00	199.24
792.00	205.62
793.00	206.30
794.00	203.13
795.00	201.90
796.00	203.22
797.00	208.35
798.00	198.96
799.00	205.82
800.00	202.04
801.00	203.49
802.00	200.79
803.00	202.85
804.00	201.65
805.00	199.60
806.00	204.37
807.00	202.97
808.00	204.58
809.00	203.17
810.00	203.80
811.00	203.59
812.00	202.04
813.00	201.47
814.00	205.84
815.00	204.38
816.00	200.74
817.00	204.72
818.00	202.17
819.00	199.43
820.00	202.98
821.00	202.90
822.00	205.20
823.00	199.53
824.00	205.19
825.00	204.59
826.00	204.49
827.00	204.03
828.00	203.03
829.00	203.38
830.00	200.11
831.00	203.76
832.00	202.91
833.00	200.03
834.00	202.18
835.00	201.27
836.00	205.70
837.00	210.14
838.00	203.26
839.00	203.97
840.00	199.17
841.00	202.86
842.00	204.31
843.00	201.37
844.00	202.11
845.00	202.10
846.00	201.13
847.00	205.68
848.00	207.96
849.00	206.15
850.00	203.36
851.00	205.23
852.00	202.07
853.00	201.75
854.00	208.17
855.00	205.11
856.00	204.10
857.00	205.74
858.00	201.53
859.00	203.94
860.00	202.44
861.00	205.76
862.00	205.79
863.00	200.69
864.00	205.02
865.00	205.25
866.00	203.57
867.00	203.07
868.00	207.01
869.00	204.22
870.00	202.60
871.00	200.14
872.00	204.17
873.00	205.50
874.00	205.42
875.00	200.40
876.00	207.58
877.00	204.66
878.00	203.72
879.00	208.73
880.00	207.96
881.00	201.17
882.00	203.02
883.00	206.53
884.00	204.00
885.00	203.26
886.00	201.52
887.00	202.05
888.00	202.10
889.00	201.31
890.00	203.60
891.00	203.10
892.00	200.81
893.00	207.14
894.00	208.16
895.00	205.99
896.00	203.46
897.00	200.96
898.00	201.02
899.00	203.14
900.00	204.60
901.00	203.58
902.00	198.28
903.00	205.12
904.00	204.12
905.00	204.02
906.00	206.06
907.00	202.01
908.00	204.02
909.00	202.35
910.00	203.09
911.00	199.65
912.00	201.14
913.00	203.23
914.00	203.92
915.00	203.19
916.00	204.14
917.00	203.55
918.00	201.88
919.00	203.77
920.00	198.20
921.00	204.06
922.00	202.96
923.00	203.99
924.00	201.58
925.00	202.31
926.00	204.00
927.00	202.38
928.00	202.47
929.00	202.55
930.00	201.16
931.00	205.92
932.00	203.84
933.00	205.29
934.00	207.27
935.00	201.82
936.00	198.92
937.00	205.03
938.00	205.39
939.00	201.70
940.00	203.33
941.00	204.87
942.00	204.98
943.00	206.83
944.00	204.90
945.00	206.36
946.00	203.81
947.00	203.98
948.00	205.15
949.00	205.48
950.00	205.34
951.00	203.42
952.00	206.98
953.00	205.55
954.00	200.07
955.00	200.24
956.00	200.71
957.00	201.22
958.00	204.58
959.00	202.99
960.00	201.11
961.00	200.14
962.00	202.07
963.00	204.17
964.00	205.83
965.00	201.86
966.00	201.45
967.00	203.59
968.00	202.99
969.00	201.49
970.00	205.95
971.00	202.05
972.00	205.55
973.00	205.54
974.00	205.93
975.00	202.53
976.00	202.98
977.00	202.31
978.00	197.80
979.00	199.86
980.00	204.72
981.00	206.93
982.00	201.66
983.00	204.33
984.00	205.69
985.00	206.31
986.00	206.42
987.00	203.18
988.00	203.62
989.00	199.98
990.00	205.78
991.00	206.92
992.00	206.31
993.00	199.96
994.00	205.92
995.00	205.76
996.00	201.33
997.00	202.20
998.00	204.90
999.00	203.66
1000.00	203.01
>>>>>End Processed Spectral Data<<<<<
