SpectraSuite Data File
++++++++++++++++++++++++++++++++++++
Date: Thu Oct 13 11:15:51 CDT 2011
User: Helimak
Dark Spectrum Present: No
Reference Spectrum Present: No
Number of Sampled Component Spectra: 1
Spectrometers: USB2G37154
Integration Time (usec): 20000 (USB2G37154)
Spectra Averaged: 1 (USB2G37154)
Boxcar Smoothing: 0 (USB2G37154)
Correct for Electrical Dark: No (USB2G37154)
Strobe/Lamp Enabled: No (USB2G37154)
Correct for Detector Non-linearity: No (USB2G37154)
Correct for Stray Light: No (USB2G37154)
Number of Pixels in Processed Spectrum: 651
>>>>>Begin Processed Spectral Data<<<<<
350.00	204.11
351.00	200.75
352.00	201.61
353.00	202.53
354.00	206.30
355.00	200.65
356.00	202.85
357.00	203.44
358.00	202.40
359.00	204.37
360.00	203.34
361.00	203.39
362.00	207.41
363.00	201.19
364.00	205.29
365.00	203.52
366.00	203.88
367.00	197.99
368.00	204.92
369.00	205.00
370.00	208.00
371.00	204.04
372.00	200.71
373.00	202.16
374.00	205.98
375.00	201.24
376.00	201.61
377.00	205.45
378.00	205.49
379.00	198.70
380.00	205.91
381.00	207.57
382.00	207.32
383.00	205.81
384.00	203.60
385.00	200.38
386.00	201.01
387.00	205.74
388.00	204.63
389.00	203.80
390.00	205.25
391.00	208.41
392.00	208.03
393.00	205.62
394.00	204.84
395.00	207.17
396.00	208.02
397.00	197.16
398.00	203.28
399.00	203.99
400.00	210.67
401.00	205.87
402.00	204.36
403.00	207.00
404.00	208.27
405.00	204.79
406.00	205.00
407.00	202.64
408.00	204.75
409.00	206.00
410.00	204.96
411.00	207.88
412.00	204.36
413.00	205.06
414.00	205.68
415.00	205.18
416.00	207.60
417.00	205.69
418.00	205.71
419.00	209.83
420.00	205.85
421.00	204.03
422.00	202.70
423.00	207.82
424.00	204.95
425.00	204.47
426.00	204.42
427.00	207.13
428.00	203.45
429.00	201.02
430.00	206.15
431.00	205.16
432.00	206.79
433.00	202.11
434.00	205.96
435.00	207.83
436.00	205.76
437.00	207.53
438.00	203.07
439.00	204.23
440.00	204.17
441.00	207.97
442.00	210.45
443.00	204.58
444.00	207.78
445.00	204.97
446.00	207.12
447.00	205.18
448.00	203.24
449.00	206.91
450.00	207.98
451.00	206.73
452.00	206.61
453.00	203.21
454.00	207.45
455.00	206.49
456.00	202.08
457.00	207.75
458.00	203.75
459.00	205.49
460.00	204.90
461.00	203.59
462.00	206.81
463.00	208.63
464.00	206.65
465.00	209.18
466.00	210.12
467.00	201.86
468.00	209.01
469.00	206.66
470.00	202.72
471.00	207.84
472.00	207.14
473.00	207.54
474.00	205.30
475.00	205.55
476.00	205.92
477.00	203.63
478.00	204.57
479.00	203.29
480.00	203.63
481.00	206.50
482.00	207.90
483.00	205.41
484.00	206.36
485.00	212.00
486.00	200.74
487.00	207.06
488.00	205.81
489.00	208.97
490.00	205.97
491.00	202.21
492.00	208.62
493.00	205.92
494.00	207.44
495.00	202.64
496.00	205.06
497.00	207.73
498.00	204.96
499.00	204.40
500.00	208.78
501.00	203.23
502.00	208.00
503.00	202.95
504.00	203.26
505.00	206.48
506.00	208.23
507.00	202.67
508.00	204.91
509.00	205.96
510.00	204.35
511.00	209.97
512.00	207.23
513.00	204.29
514.00	205.60
515.00	207.46
516.00	206.53
517.00	202.69
518.00	206.41
519.00	201.97
520.00	205.09
521.00	207.07
522.00	205.32
523.00	210.39
524.00	204.18
525.00	205.88
526.00	203.45
527.00	203.70
528.00	202.10
529.00	203.95
530.00	208.13
531.00	203.21
532.00	204.30
533.00	203.92
534.00	199.65
535.00	202.13
536.00	205.21
537.00	203.58
538.00	207.18
539.00	207.97
540.00	207.94
541.00	207.09
542.00	217.93
543.00	218.12
544.00	222.62
545.00	218.16
546.00	217.46
547.00	210.12
548.00	206.80
549.00	205.83
550.00	203.50
551.00	205.02
552.00	208.76
553.00	205.63
554.00	204.23
555.00	204.30
556.00	201.06
557.00	205.01
558.00	203.54
559.00	202.12
560.00	200.03
561.00	205.60
562.00	202.88
563.00	203.75
564.00	199.62
565.00	201.69
566.00	205.27
567.00	201.60
568.00	206.09
569.00	202.64
570.00	203.40
571.00	207.22
572.00	203.17
573.00	203.87
574.00	207.89
575.00	203.51
576.00	204.45
577.00	202.09
578.00	208.75
579.00	204.30
580.00	206.00
581.00	203.44
582.00	205.55
583.00	205.59
584.00	210.68
585.00	205.79
586.00	203.10
587.00	207.97
588.00	204.66
589.00	205.57
590.00	205.34
591.00	204.35
592.00	207.86
593.00	206.12
594.00	206.01
595.00	207.21
596.00	203.76
597.00	201.98
598.00	206.61
599.00	204.41
600.00	202.63
601.00	205.04
602.00	202.75
603.00	204.09
604.00	205.92
605.00	205.37
606.00	203.19
607.00	205.32
608.00	205.96
609.00	202.04
610.00	210.23
611.00	218.67
612.00	218.20
613.00	207.51
614.00	205.79
615.00	206.91
616.00	204.99
617.00	203.02
618.00	208.26
619.00	204.52
620.00	205.44
621.00	205.24
622.00	204.80
623.00	203.81
624.00	203.86
625.00	200.48
626.00	204.10
627.00	207.34
628.00	204.04
629.00	203.58
630.00	208.00
631.00	205.78
632.00	204.37
633.00	205.41
634.00	203.09
635.00	202.92
636.00	202.18
637.00	203.77
638.00	200.26
639.00	205.05
640.00	201.20
641.00	205.62
642.00	203.42
643.00	202.70
644.00	206.35
645.00	201.23
646.00	207.10
647.00	198.31
648.00	203.14
649.00	205.87
650.00	203.13
651.00	204.16
652.00	203.17
653.00	201.86
654.00	205.70
655.00	205.26
656.00	200.85
657.00	199.90
658.00	204.01
659.00	202.83
660.00	204.06
661.00	207.16
662.00	203.69
663.00	207.41
664.00	208.48
665.00	201.67
666.00	206.70
667.00	203.08
668.00	202.42
669.00	205.09
670.00	201.37
671.00	202.25
672.00	207.04
673.00	204.02
674.00	199.02
675.00	201.91
676.00	203.38
677.00	203.22
678.00	198.96
679.00	199.52
680.00	205.22
681.00	205.60
682.00	200.76
683.00	202.76
684.00	201.66
685.00	207.45
686.00	198.32
687.00	205.06
688.00	203.71
689.00	205.66
690.00	206.17
691.00	200.90
692.00	205.36
693.00	201.28
694.00	207.07
695.00	201.06
696.00	204.00
697.00	202.89
698.00	203.11
699.00	204.84
700.00	200.92
701.00	205.76
702.00	205.65
703.00	203.67
704.00	205.35
705.00	204.42
706.00	204.03
707.00	200.00
708.00	200.49
709.00	199.73
710.00	203.94
711.00	202.81
712.00	204.03
713.00	206.26
714.00	202.77
715.00	204.20
716.00	201.47
717.00	204.62
718.00	202.69
719.00	207.34
720.00	206.15
721.00	203.88
722.00	205.27
723.00	202.08
724.00	202.85
725.00	205.99
726.00	201.56
727.00	204.73
728.00	202.90
729.00	203.32
730.00	204.85
731.00	202.83
732.00	202.74
733.00	202.00
734.00	205.82
735.00	206.16
736.00	203.53
737.00	202.31
738.00	206.69
739.00	202.84
740.00	206.16
741.00	202.03
742.00	203.03
743.00	206.01
744.00	207.13
745.00	202.18
746.00	208.84
747.00	204.70
748.00	202.67
749.00	200.91
750.00	201.25
751.00	204.30
752.00	203.54
753.00	201.61
754.00	202.54
755.00	204.07
756.00	197.84
757.00	207.34
758.00	206.36
759.00	201.58
760.00	205.84
761.00	202.57
762.00	204.08
763.00	206.12
764.00	201.00
765.00	202.03
766.00	204.10
767.00	201.55
768.00	203.99
769.00	202.87
770.00	200.55
771.00	202.12
772.00	202.98
773.00	204.07
774.00	205.06
775.00	206.40
776.00	203.78
777.00	199.77
778.00	204.00
779.00	205.12
780.00	202.33
781.00	202.00
782.00	206.49
783.00	206.33
784.00	201.00
785.00	205.38
786.00	201.35
787.00	205.27
788.00	205.63
789.00	203.98
790.00	200.16
791.00	206.99
792.00	201.65
793.00	201.31
794.00	201.81
795.00	204.18
796.00	205.35
797.00	203.47
798.00	207.82
799.00	205.18
800.00	203.90
801.00	205.90
802.00	203.16
803.00	200.32
804.00	202.62
805.00	206.19
806.00	206.76
807.00	203.12
808.00	203.54
809.00	204.22
810.00	204.50
811.00	204.90
812.00	206.58
813.00	203.74
814.00	203.98
815.00	206.13
816.00	202.71
817.00	204.28
818.00	206.10
819.00	201.25
820.00	203.82
821.00	205.01
822.00	204.07
823.00	201.37
824.00	202.03
825.00	205.03
826.00	203.65
827.00	205.90
828.00	201.96
829.00	200.88
830.00	205.41
831.00	202.58
832.00	200.33
833.00	203.26
834.00	198.94
835.00	202.22
836.00	204.60
837.00	200.99
838.00	204.59
839.00	201.95
840.00	206.60
841.00	204.78
842.00	199.41
843.00	204.53
844.00	201.71
845.00	204.79
846.00	201.64
847.00	203.77
848.00	201.87
849.00	204.40
850.00	203.21
851.00	203.22
852.00	206.06
853.00	201.32
854.00	199.56
855.00	203.58
856.00	203.70
857.00	200.43
858.00	203.74
859.00	201.81
860.00	205.04
861.00	201.80
862.00	204.72
863.00	198.96
864.00	202.97
865.00	202.26
866.00	200.74
867.00	203.26
868.00	200.04
869.00	203.95
870.00	204.64
871.00	203.28
872.00	202.78
873.00	201.64
874.00	205.33
875.00	202.80
876.00	205.16
877.00	202.27
878.00	202.76
879.00	201.63
880.00	199.87
881.00	205.40
882.00	203.25
883.00	205.49
884.00	202.99
885.00	202.34
886.00	203.05
887.00	204.15
888.00	205.05
889.00	204.04
890.00	202.50
891.00	204.14
892.00	205.25
893.00	202.14
894.00	204.94
895.00	205.91
896.00	204.68
897.00	205.98
898.00	202.92
899.00	205.38
900.00	204.12
901.00	204.92
902.00	203.97
903.00	204.32
904.00	199.01
905.00	198.94
906.00	199.88
907.00	210.08
908.00	204.08
909.00	203.76
910.00	204.58
911.00	204.88
912.00	205.63
913.00	204.05
914.00	205.96
915.00	204.82
916.00	201.68
917.00	202.60
918.00	203.91
919.00	200.38
920.00	205.24
921.00	205.20
922.00	205.24
923.00	207.04
924.00	202.66
925.00	205.36
926.00	204.02
927.00	203.46
928.00	202.00
929.00	201.95
930.00	202.78
931.00	205.50
932.00	200.76
933.00	204.48
934.00	204.62
935.00	206.59
936.00	202.41
937.00	201.85
938.00	205.93
939.00	203.01
940.00	205.86
941.00	205.25
942.00	197.06
943.00	200.49
944.00	204.73
945.00	203.96
946.00	202.18
947.00	205.08
948.00	202.02
949.00	205.21
950.00	204.48
951.00	203.95
952.00	201.06
953.00	205.58
954.00	199.49
955.00	203.86
956.00	200.70
957.00	200.89
958.00	201.83
959.00	202.05
960.00	202.03
961.00	202.04
962.00	199.59
963.00	203.60
964.00	205.98
965.00	200.76
966.00	199.08
967.00	203.67
968.00	202.94
969.00	206.70
970.00	202.97
971.00	201.97
972.00	203.36
973.00	203.63
974.00	203.53
975.00	206.30
976.00	202.51
977.00	204.28
978.00	202.21
979.00	204.93
980.00	201.43
981.00	205.42
982.00	202.04
983.00	201.00
984.00	201.64
985.00	204.06
986.00	202.64
987.00	200.71
988.00	208.52
989.00	198.88
990.00	206.12
991.00	204.45
992.00	203.66
993.00	201.23
994.00	202.29
995.00	203.23
996.00	203.06
997.00	205.49
998.00	203.70
999.00	210.58
1000.00	198.93
>>>>>End Processed Spectral Data<<<<<
