SpectraSuite Data File
++++++++++++++++++++++++++++++++++++
Date: Thu Oct 13 11:15:51 CDT 2011
User: Helimak
Dark Spectrum Present: No
Reference Spectrum Present: No
Number of Sampled Component Spectra: 1
Spectrometers: USB2G37154
Integration Time (usec): 20000 (USB2G37154)
Spectra Averaged: 1 (USB2G37154)
Boxcar Smoothing: 0 (USB2G37154)
Correct for Electrical Dark: No (USB2G37154)
Strobe/Lamp Enabled: No (USB2G37154)
Correct for Detector Non-linearity: No (USB2G37154)
Correct for Stray Light: No (USB2G37154)
Number of Pixels in Processed Spectrum: 651
>>>>>Begin Processed Spectral Data<<<<<
350.00	202.73
351.00	200.73
352.00	200.29
353.00	203.99
354.00	203.22
355.00	200.22
356.00	201.17
357.00	204.30
358.00	203.57
359.00	198.44
360.00	205.82
361.00	201.58
362.00	201.89
363.00	201.69
364.00	199.02
365.00	202.10
366.00	204.50
367.00	204.98
368.00	203.58
369.00	205.77
370.00	202.02
371.00	201.79
372.00	204.55
373.00	203.09
374.00	203.48
375.00	198.97
376.00	207.32
377.00	204.45
378.00	206.68
379.00	205.82
380.00	204.75
381.00	200.93
382.00	203.66
383.00	204.85
384.00	203.84
385.00	199.99
386.00	210.96
387.00	201.71
388.00	203.24
389.00	206.87
390.00	201.64
391.00	205.56
392.00	203.78
393.00	204.65
394.00	206.13
395.00	205.22
396.00	202.99
397.00	203.59
398.00	205.17
399.00	209.15
400.00	204.66
401.00	205.47
402.00	209.27
403.00	204.30
404.00	207.38
405.00	205.43
406.00	208.01
407.00	205.23
408.00	206.84
409.00	205.86
410.00	208.81
411.00	203.78
412.00	206.71
413.00	204.91
414.00	203.37
415.00	207.25
416.00	207.26
417.00	202.58
418.00	205.75
419.00	214.53
420.00	208.03
421.00	204.48
422.00	206.04
423.00	204.00
424.00	207.20
425.00	207.17
426.00	208.86
427.00	207.04
428.00	208.09
429.00	208.34
430.00	205.24
431.00	203.72
432.00	208.04
433.00	205.14
434.00	209.06
435.00	207.37
436.00	207.12
437.00	207.17
438.00	203.25
439.00	210.11
440.00	205.38
441.00	202.42
442.00	206.60
443.00	206.64
444.00	205.54
445.00	204.96
446.00	205.98
447.00	207.36
448.00	203.17
449.00	206.03
450.00	205.62
451.00	207.13
452.00	206.62
453.00	202.04
454.00	205.64
455.00	208.29
456.00	209.29
457.00	208.85
458.00	205.79
459.00	207.88
460.00	207.68
461.00	208.61
462.00	207.09
463.00	205.62
464.00	208.31
465.00	206.52
466.00	206.83
467.00	205.73
468.00	205.86
469.00	204.20
470.00	204.46
471.00	204.54
472.00	209.04
473.00	204.05
474.00	210.23
475.00	205.45
476.00	200.94
477.00	201.59
478.00	203.98
479.00	206.47
480.00	202.77
481.00	202.41
482.00	207.87
483.00	206.06
484.00	206.21
485.00	210.89
486.00	210.53
487.00	206.58
488.00	206.09
489.00	208.99
490.00	206.10
491.00	206.74
492.00	206.88
493.00	208.14
494.00	205.56
495.00	202.79
496.00	206.10
497.00	207.08
498.00	207.13
499.00	206.78
500.00	207.26
501.00	205.53
502.00	202.00
503.00	202.66
504.00	202.16
505.00	203.95
506.00	203.93
507.00	200.94
508.00	202.93
509.00	203.44
510.00	203.68
511.00	205.99
512.00	206.10
513.00	205.20
514.00	204.85
515.00	206.03
516.00	204.11
517.00	207.25
518.00	208.46
519.00	202.16
520.00	209.15
521.00	202.02
522.00	203.98
523.00	202.84
524.00	205.02
525.00	200.20
526.00	204.37
527.00	203.07
528.00	202.76
529.00	204.63
530.00	201.18
531.00	209.12
532.00	207.60
533.00	205.86
534.00	204.24
535.00	204.84
536.00	204.08
537.00	206.26
538.00	206.46
539.00	205.43
540.00	207.16
541.00	210.72
542.00	215.10
543.00	221.17
544.00	215.11
545.00	215.93
546.00	215.27
547.00	208.36
548.00	207.77
549.00	210.67
550.00	210.82
551.00	207.99
552.00	203.35
553.00	205.50
554.00	206.52
555.00	203.39
556.00	200.75
557.00	198.91
558.00	203.39
559.00	203.60
560.00	204.53
561.00	201.32
562.00	203.10
563.00	205.26
564.00	209.78
565.00	207.64
566.00	201.29
567.00	208.49
568.00	199.85
569.00	203.40
570.00	206.01
571.00	207.04
572.00	202.51
573.00	207.83
574.00	204.99
575.00	203.96
576.00	200.10
577.00	207.20
578.00	204.63
579.00	207.15
580.00	202.06
581.00	205.08
582.00	205.57
583.00	204.46
584.00	205.46
585.00	203.42
586.00	207.54
587.00	206.07
588.00	209.39
589.00	205.62
590.00	209.42
591.00	206.14
592.00	204.54
593.00	204.86
594.00	205.00
595.00	209.54
596.00	206.21
597.00	204.77
598.00	206.65
599.00	207.26
600.00	203.54
601.00	205.96
602.00	203.95
603.00	203.04
604.00	205.08
605.00	203.24
606.00	202.38
607.00	205.70
608.00	206.96
609.00	205.94
610.00	208.55
611.00	220.41
612.00	214.72
613.00	210.22
614.00	210.88
615.00	210.05
616.00	206.63
617.00	212.03
618.00	205.49
619.00	208.50
620.00	205.71
621.00	205.69
622.00	205.19
623.00	204.71
624.00	206.04
625.00	205.21
626.00	207.19
627.00	206.29
628.00	207.28
629.00	205.62
630.00	203.33
631.00	203.75
632.00	201.59
633.00	204.81
634.00	204.68
635.00	202.89
636.00	203.43
637.00	203.13
638.00	202.11
639.00	201.41
640.00	203.87
641.00	204.86
642.00	203.92
643.00	206.77
644.00	203.49
645.00	199.90
646.00	207.12
647.00	204.17
648.00	202.27
649.00	200.88
650.00	202.20
651.00	200.78
652.00	203.49
653.00	202.93
654.00	205.94
655.00	205.89
656.00	201.50
657.00	203.83
658.00	205.00
659.00	204.82
660.00	204.93
661.00	198.40
662.00	204.10
663.00	202.40
664.00	204.77
665.00	200.38
666.00	201.62
667.00	204.66
668.00	202.40
669.00	203.55
670.00	199.63
671.00	206.22
672.00	201.06
673.00	203.01
674.00	200.94
675.00	204.45
676.00	204.42
677.00	205.01
678.00	200.07
679.00	202.53
680.00	202.39
681.00	204.28
682.00	204.91
683.00	202.01
684.00	204.47
685.00	206.15
686.00	200.23
687.00	202.54
688.00	206.15
689.00	207.15
690.00	202.68
691.00	201.22
692.00	202.87
693.00	202.90
694.00	200.03
695.00	202.09
696.00	204.00
697.00	204.83
698.00	203.97
699.00	204.97
700.00	203.52
701.00	198.20
702.00	204.89
703.00	201.47
704.00	200.14
705.00	200.63
706.00	203.92
707.00	201.91
708.00	203.52
709.00	207.47
710.00	201.57
711.00	198.47
712.00	205.08
713.00	205.26
714.00	200.22
715.00	201.00
716.00	198.61
717.00	198.77
718.00	203.21
719.00	203.55
720.00	203.74
721.00	200.04
722.00	201.84
723.00	203.07
724.00	201.94
725.00	204.73
726.00	207.50
727.00	202.14
728.00	202.99
729.00	204.59
730.00	202.85
731.00	202.53
732.00	202.17
733.00	199.65
734.00	203.18
735.00	204.27
736.00	201.32
737.00	202.09
738.00	206.31
739.00	203.43
740.00	206.98
741.00	206.77
742.00	200.95
743.00	205.97
744.00	205.85
745.00	203.82
746.00	203.64
747.00	202.15
748.00	201.94
749.00	202.10
750.00	202.28
751.00	203.08
752.00	197.63
753.00	202.67
754.00	201.28
755.00	203.49
756.00	200.22
757.00	203.44
758.00	202.70
759.00	204.36
760.00	201.20
761.00	202.00
762.00	201.04
763.00	204.13
764.00	204.98
765.00	198.23
766.00	206.39
767.00	201.59
768.00	206.69
769.00	203.11
770.00	198.53
771.00	204.51
772.00	203.31
773.00	202.69
774.00	204.21
775.00	203.83
776.00	205.22
777.00	204.00
778.00	201.99
779.00	208.04
780.00	200.80
781.00	202.44
782.00	200.10
783.00	205.77
784.00	206.96
785.00	201.34
786.00	206.23
787.00	205.29
788.00	202.10
789.00	206.01
790.00	202.38
791.00	203.26
792.00	207.75
793.00	204.81
794.00	204.44
795.00	205.73
796.00	203.79
797.00	205.19
798.00	202.98
799.00	205.20
800.00	203.44
801.00	201.65
802.00	204.89
803.00	203.15
804.00	199.00
805.00	200.70
806.00	205.57
807.00	205.07
808.00	201.05
809.00	203.09
810.00	205.36
811.00	204.44
812.00	204.73
813.00	202.93
814.00	208.14
815.00	203.57
816.00	205.71
817.00	203.18
818.00	207.22
819.00	201.11
820.00	204.49
821.00	200.97
822.00	205.77
823.00	202.27
824.00	203.89
825.00	201.20
826.00	199.05
827.00	208.10
828.00	201.07
829.00	203.97
830.00	205.07
831.00	203.04
832.00	200.56
833.00	204.64
834.00	200.36
835.00	199.57
836.00	205.34
837.00	208.21
838.00	204.82
839.00	203.95
840.00	204.22
841.00	205.85
842.00	205.31
843.00	201.44
844.00	200.39
845.00	201.69
846.00	204.23
847.00	203.11
848.00	202.85
849.00	205.56
850.00	205.07
851.00	199.67
852.00	202.81
853.00	204.05
854.00	202.29
855.00	204.76
856.00	206.80
857.00	200.88
858.00	200.34
859.00	207.97
860.00	201.75
861.00	202.26
862.00	199.70
863.00	199.69
864.00	201.99
865.00	202.61
866.00	203.15
867.00	207.67
868.00	205.99
869.00	201.70
870.00	206.46
871.00	204.67
872.00	203.86
873.00	199.63
874.00	206.44
875.00	206.89
876.00	200.14
877.00	205.09
878.00	202.63
879.00	200.45
880.00	206.85
881.00	203.37
882.00	200.09
883.00	203.14
884.00	207.01
885.00	206.91
886.00	203.76
887.00	198.16
888.00	206.14
889.00	202.63
890.00	202.40
891.00	200.02
892.00	203.42
893.00	204.47
894.00	202.69
895.00	202.87
896.00	205.72
897.00	201.89
898.00	202.91
899.00	203.44
900.00	202.27
901.00	203.63
902.00	199.94
903.00	207.96
904.00	205.45
905.00	204.01
906.00	201.76
907.00	205.72
908.00	204.95
909.00	204.24
910.00	203.02
911.00	206.16
912.00	204.63
913.00	201.84
914.00	201.05
915.00	206.18
916.00	204.40
917.00	206.39
918.00	201.66
919.00	204.04
920.00	203.78
921.00	206.12
922.00	204.40
923.00	203.98
924.00	205.54
925.00	207.05
926.00	203.00
927.00	206.36
928.00	201.97
929.00	203.48
930.00	202.32
931.00	204.98
932.00	203.82
933.00	201.36
934.00	203.87
935.00	203.04
936.00	201.61
937.00	202.21
938.00	201.05
939.00	205.79
940.00	202.54
941.00	204.32
942.00	203.01
943.00	204.19
944.00	201.99
945.00	204.75
946.00	204.83
947.00	204.00
948.00	206.99
949.00	204.76
950.00	202.73
951.00	202.12
952.00	198.03
953.00	201.19
954.00	205.48
955.00	201.88
956.00	206.16
957.00	203.82
958.00	203.61
959.00	199.98
960.00	200.52
961.00	203.45
962.00	205.34
963.00	205.69
964.00	200.62
965.00	199.52
966.00	206.71
967.00	200.80
968.00	204.01
969.00	202.19
970.00	202.97
971.00	202.06
972.00	203.06
973.00	202.02
974.00	205.70
975.00	204.80
976.00	203.65
977.00	199.28
978.00	205.04
979.00	203.12
980.00	204.89
981.00	202.86
982.00	206.91
983.00	202.16
984.00	201.64
985.00	204.81
986.00	202.41
987.00	203.68
988.00	206.33
989.00	187.22
990.00	201.26
991.00	203.89
992.00	201.67
993.00	203.60
994.00	204.80
995.00	205.36
996.00	206.86
997.00	203.62
998.00	203.53
999.00	200.30
1000.00	202.95
>>>>>End Processed Spectral Data<<<<<
