SpectraSuite Data File
++++++++++++++++++++++++++++++++++++
Date: Thu Oct 13 11:15:51 CDT 2011
User: Helimak
Dark Spectrum Present: No
Reference Spectrum Present: No
Number of Sampled Component Spectra: 1
Spectrometers: USB2G37154
Integration Time (usec): 20000 (USB2G37154)
Spectra Averaged: 1 (USB2G37154)
Boxcar Smoothing: 0 (USB2G37154)
Correct for Electrical Dark: No (USB2G37154)
Strobe/Lamp Enabled: No (USB2G37154)
Correct for Detector Non-linearity: No (USB2G37154)
Correct for Stray Light: No (USB2G37154)
Number of Pixels in Processed Spectrum: 651
>>>>>Begin Processed Spectral Data<<<<<
350.00	200.78
351.00	203.43
352.00	199.67
353.00	200.75
354.00	204.90
355.00	206.08
356.00	201.98
357.00	204.58
358.00	203.35
359.00	204.99
360.00	201.07
361.00	200.70
362.00	203.05
363.00	204.60
364.00	200.31
365.00	196.33
366.00	203.12
367.00	202.07
368.00	199.02
369.00	201.31
370.00	203.00
371.00	201.17
372.00	203.85
373.00	204.01
374.00	204.03
375.00	203.41
376.00	205.75
377.00	204.97
378.00	207.30
379.00	206.60
380.00	208.77
381.00	206.51
382.00	202.71
383.00	204.76
384.00	202.00
385.00	204.32
386.00	203.98
387.00	200.51
388.00	202.62
389.00	202.71
390.00	207.71
391.00	202.33
392.00	207.08
393.00	209.67
394.00	207.05
395.00	207.80
396.00	203.93
397.00	205.13
398.00	205.39
399.00	201.13
400.00	204.57
401.00	209.02
402.00	208.50
403.00	207.00
404.00	208.08
405.00	204.24
406.00	203.99
407.00	205.61
408.00	204.51
409.00	204.43
410.00	207.80
411.00	206.25
412.00	205.51
413.00	203.02
414.00	203.72
415.00	207.44
416.00	205.35
417.00	208.09
418.00	207.19
419.00	206.51
420.00	206.88
421.00	208.04
422.00	208.22
423.00	205.02
424.00	205.35
425.00	206.68
426.00	203.79
427.00	205.98
428.00	206.41
429.00	203.54
430.00	206.76
431.00	205.28
432.00	205.24
433.00	203.48
434.00	204.15
435.00	207.22
436.00	206.04
437.00	207.69
438.00	204.21
439.00	204.86
440.00	203.94
441.00	202.49
442.00	207.96
443.00	209.26
444.00	204.79
445.00	207.95
446.00	209.86
447.00	203.29
448.00	204.64
449.00	205.98
450.00	207.82
451.00	205.24
452.00	201.37
453.00	208.18
454.00	203.82
455.00	204.34
456.00	205.39
457.00	200.94
458.00	205.45
459.00	204.88
460.00	207.09
461.00	201.16
462.00	205.88
463.00	204.19
464.00	205.11
465.00	210.87
466.00	206.50
467.00	206.78
468.00	203.91
469.00	203.91
470.00	203.90
471.00	205.36
472.00	204.23
473.00	206.85
474.00	203.52
475.00	206.51
476.00	209.07
477.00	203.84
478.00	205.97
479.00	208.12
480.00	206.16
481.00	205.49
482.00	206.56
483.00	201.58
484.00	206.63
485.00	205.08
486.00	204.19
487.00	206.82
488.00	203.17
489.00	207.00
490.00	207.43
491.00	204.81
492.00	205.81
493.00	211.83
494.00	206.41
495.00	207.23
496.00	206.14
497.00	208.71
498.00	206.59
499.00	205.40
500.00	204.45
501.00	203.26
502.00	206.99
503.00	208.37
504.00	207.32
505.00	205.69
506.00	204.88
507.00	205.19
508.00	205.77
509.00	204.31
510.00	204.15
511.00	202.98
512.00	205.92
513.00	205.95
514.00	203.15
515.00	206.51
516.00	206.10
517.00	205.35
518.00	205.21
519.00	206.74
520.00	204.93
521.00	205.73
522.00	205.99
523.00	195.24
524.00	204.53
525.00	202.07
526.00	208.93
527.00	202.37
528.00	204.02
529.00	202.51
530.00	204.69
531.00	187.60
532.00	202.92
533.00	203.76
534.00	208.65
535.00	209.05
536.00	202.91
537.00	204.35
538.00	207.62
539.00	205.43
540.00	208.50
541.00	215.83
542.00	213.47
543.00	219.20
544.00	213.41
545.00	217.57
546.00	214.23
547.00	212.74
548.00	206.63
549.00	208.34
550.00	206.97
551.00	210.99
552.00	208.94
553.00	206.74
554.00	204.89
555.00	208.37
556.00	206.78
557.00	203.22
558.00	206.53
559.00	203.09
560.00	205.05
561.00	202.18
562.00	205.27
563.00	201.09
564.00	207.64
565.00	203.35
566.00	206.88
567.00	208.16
568.00	204.02
569.00	198.15
570.00	203.90
571.00	204.16
572.00	202.72
573.00	205.41
574.00	202.98
575.00	204.10
576.00	204.99
577.00	203.45
578.00	204.17
579.00	203.91
580.00	205.35
581.00	202.89
582.00	203.77
583.00	207.29
584.00	211.33
585.00	210.27
586.00	207.24
587.00	203.05
588.00	207.26
589.00	205.94
590.00	203.85
591.00	207.52
592.00	206.70
593.00	203.40
594.00	205.01
595.00	204.25
596.00	202.24
597.00	204.50
598.00	206.03
599.00	204.59
600.00	201.85
601.00	203.90
602.00	202.18
603.00	202.61
604.00	197.66
605.00	205.65
606.00	203.54
607.00	201.09
608.00	208.76
609.00	210.02
610.00	206.90
611.00	221.03
612.00	210.90
613.00	211.14
614.00	206.43
615.00	206.35
616.00	204.45
617.00	203.97
618.00	206.88
619.00	205.77
620.00	207.19
621.00	208.44
622.00	205.84
623.00	201.79
624.00	212.68
625.00	201.43
626.00	206.87
627.00	205.80
628.00	194.02
629.00	207.84
630.00	207.17
631.00	207.56
632.00	209.28
633.00	205.49
634.00	206.80
635.00	205.93
636.00	200.14
637.00	202.47
638.00	202.56
639.00	204.04
640.00	202.04
641.00	204.49
642.00	202.86
643.00	201.64
644.00	199.45
645.00	199.99
646.00	201.02
647.00	203.24
648.00	206.01
649.00	201.50
650.00	200.29
651.00	201.57
652.00	200.12
653.00	203.44
654.00	199.83
655.00	204.01
656.00	207.85
657.00	201.85
658.00	202.00
659.00	203.92
660.00	201.18
661.00	200.56
662.00	202.60
663.00	202.51
664.00	203.38
665.00	203.91
666.00	203.90
667.00	197.98
668.00	204.00
669.00	199.84
670.00	206.70
671.00	206.23
672.00	202.99
673.00	201.03
674.00	201.75
675.00	202.88
676.00	204.71
677.00	202.68
678.00	208.99
679.00	203.88
680.00	206.98
681.00	201.82
682.00	204.89
683.00	206.22
684.00	206.43
685.00	204.87
686.00	203.68
687.00	202.65
688.00	207.49
689.00	205.40
690.00	202.85
691.00	202.44
692.00	203.97
693.00	203.89
694.00	201.02
695.00	201.93
696.00	205.00
697.00	200.02
698.00	203.94
699.00	201.83
700.00	205.08
701.00	200.52
702.00	205.13
703.00	204.22
704.00	208.35
705.00	205.05
706.00	203.39
707.00	205.47
708.00	202.10
709.00	206.36
710.00	205.45
711.00	204.01
712.00	204.24
713.00	201.37
714.00	204.98
715.00	202.97
716.00	204.00
717.00	204.29
718.00	202.13
719.00	202.74
720.00	204.13
721.00	196.32
722.00	203.04
723.00	203.55
724.00	201.27
725.00	203.40
726.00	204.27
727.00	202.71
728.00	198.62
729.00	203.32
730.00	206.32
731.00	204.04
732.00	201.06
733.00	205.66
734.00	202.24
735.00	203.55
736.00	202.69
737.00	199.72
738.00	205.21
739.00	211.28
740.00	204.08
741.00	198.11
742.00	203.99
743.00	202.96
744.00	197.15
745.00	199.94
746.00	203.11
747.00	201.63
748.00	199.95
749.00	200.72
750.00	204.60
751.00	198.01
752.00	200.77
753.00	201.14
754.00	203.35
755.00	202.92
756.00	202.12
757.00	206.22
758.00	203.03
759.00	202.93
760.00	202.78
761.00	201.20
762.00	202.77
763.00	207.26
764.00	206.03
765.00	205.19
766.00	205.02
767.00	205.17
768.00	203.39
769.00	201.17
770.00	198.50
771.00	194.74
772.00	204.22
773.00	202.65
774.00	205.69
775.00	201.28
776.00	205.70
777.00	207.91
778.00	207.00
779.00	204.81
780.00	204.27
781.00	202.50
782.00	202.07
783.00	204.28
784.00	202.42
785.00	199.59
786.00	201.93
787.00	207.04
788.00	204.03
789.00	203.99
790.00	206.33
791.00	206.04
792.00	200.68
793.00	205.94
794.00	203.74
795.00	204.83
796.00	206.03
797.00	202.83
798.00	200.01
799.00	200.21
800.00	203.30
801.00	203.56
802.00	206.97
803.00	204.35
804.00	206.06
805.00	206.63
806.00	203.98
807.00	204.79
808.00	202.04
809.00	204.44
810.00	203.27
811.00	204.23
812.00	202.71
813.00	206.07
814.00	203.08
815.00	207.67
816.00	205.63
817.00	204.39
818.00	199.64
819.00	203.18
820.00	203.08
821.00	201.14
822.00	204.06
823.00	204.27
824.00	208.05
825.00	207.40
826.00	202.28
827.00	204.90
828.00	203.26
829.00	204.37
830.00	205.68
831.00	200.49
832.00	201.22
833.00	199.91
834.00	205.94
835.00	207.44
836.00	203.85
837.00	203.61
838.00	201.88
839.00	202.89
840.00	201.49
841.00	206.52
842.00	205.31
843.00	201.08
844.00	203.61
845.00	206.71
846.00	204.41
847.00	204.40
848.00	197.96
849.00	201.50
850.00	202.62
851.00	201.01
852.00	203.07
853.00	204.12
854.00	203.16
855.00	201.97
856.00	204.99
857.00	201.89
858.00	201.46
859.00	201.81
860.00	203.91
861.00	203.66
862.00	198.44
863.00	199.95
864.00	206.08
865.00	201.71
866.00	204.20
867.00	201.52
868.00	202.01
869.00	203.86
870.00	202.63
871.00	202.14
872.00	203.00
873.00	202.70
874.00	206.74
875.00	202.37
876.00	202.92
877.00	208.29
878.00	203.11
879.00	207.15
880.00	200.12
881.00	206.99
882.00	203.71
883.00	204.13
884.00	204.00
885.00	202.72
886.00	200.72
887.00	202.57
888.00	200.93
889.00	203.68
890.00	202.19
891.00	203.80
892.00	200.86
893.00	205.56
894.00	199.87
895.00	204.13
896.00	203.46
897.00	202.61
898.00	203.91
899.00	208.36
900.00	204.65
901.00	203.70
902.00	207.13
903.00	203.52
904.00	204.61
905.00	201.97
906.00	204.38
907.00	201.43
908.00	202.11
909.00	205.91
910.00	201.33
911.00	201.83
912.00	204.08
913.00	203.67
914.00	203.03
915.00	206.90
916.00	203.03
917.00	204.02
918.00	204.91
919.00	201.99
920.00	202.10
921.00	201.98
922.00	203.58
923.00	202.99
924.00	204.77
925.00	203.25
926.00	201.00
927.00	202.36
928.00	199.46
929.00	203.17
930.00	202.86
931.00	201.46
932.00	203.54
933.00	202.88
934.00	202.65
935.00	201.60
936.00	204.17
937.00	205.87
938.00	200.88
939.00	199.30
940.00	204.80
941.00	201.37
942.00	211.89
943.00	204.29
944.00	209.37
945.00	202.80
946.00	199.75
947.00	203.00
948.00	205.54
949.00	203.91
950.00	201.66
951.00	205.75
952.00	202.93
953.00	206.40
954.00	204.29
955.00	205.65
956.00	202.14
957.00	200.42
958.00	204.03
959.00	203.99
960.00	201.57
961.00	202.05
962.00	203.13
963.00	199.13
964.00	203.41
965.00	205.93
966.00	202.06
967.00	202.80
968.00	200.02
969.00	207.32
970.00	199.12
971.00	205.77
972.00	206.84
973.00	201.15
974.00	200.75
975.00	200.31
976.00	201.84
977.00	200.51
978.00	204.64
979.00	205.33
980.00	204.74
981.00	201.79
982.00	208.26
983.00	203.27
984.00	200.52
985.00	201.56
986.00	204.66
987.00	204.47
988.00	204.76
989.00	201.53
990.00	202.09
991.00	203.37
992.00	204.44
993.00	202.72
994.00	205.01
995.00	200.80
996.00	204.52
997.00	203.55
998.00	203.47
999.00	204.44
1000.00	205.13
>>>>>End Processed Spectral Data<<<<<
