SpectraSuite Data File
++++++++++++++++++++++++++++++++++++
Date: Thu Oct 13 11:15:51 CDT 2011
User: Helimak
Dark Spectrum Present: No
Reference Spectrum Present: No
Number of Sampled Component Spectra: 1
Spectrometers: USB2G37154
Integration Time (usec): 20000 (USB2G37154)
Spectra Averaged: 1 (USB2G37154)
Boxcar Smoothing: 0 (USB2G37154)
Correct for Electrical Dark: No (USB2G37154)
Strobe/Lamp Enabled: No (USB2G37154)
Correct for Detector Non-linearity: No (USB2G37154)
Correct for Stray Light: No (USB2G37154)
Number of Pixels in Processed Spectrum: 651
>>>>>Begin Processed Spectral Data<<<<<
350.00	198.34
351.00	205.91
352.00	200.29
353.00	202.06
354.00	200.31
355.00	198.52
356.00	199.63
357.00	202.02
358.00	200.16
359.00	205.96
360.00	204.87
361.00	201.82
362.00	204.50
363.00	205.83
364.00	203.85
365.00	201.08
366.00	196.51
367.00	203.06
368.00	202.79
369.00	202.96
370.00	202.01
371.00	202.00
372.00	206.00
373.00	204.97
374.00	203.98
375.00	208.64
376.00	204.60
377.00	203.29
378.00	204.14
379.00	202.07
380.00	201.67
381.00	204.63
382.00	205.69
383.00	204.91
384.00	202.09
385.00	203.40
386.00	205.08
387.00	202.13
388.00	209.05
389.00	205.87
390.00	201.76
391.00	205.32
392.00	201.49
393.00	202.89
394.00	203.36
395.00	204.93
396.00	198.97
397.00	209.43
398.00	205.14
399.00	205.92
400.00	211.87
401.00	203.36
402.00	210.48
403.00	206.93
404.00	206.01
405.00	202.43
406.00	207.99
407.00	206.17
408.00	204.49
409.00	202.23
410.00	206.05
411.00	204.79
412.00	203.53
413.00	202.19
414.00	205.22
415.00	207.10
416.00	203.79
417.00	207.10
418.00	203.71
419.00	207.53
420.00	205.98
421.00	207.11
422.00	205.25
423.00	202.98
424.00	205.64
425.00	206.46
426.00	207.19
427.00	204.88
428.00	204.12
429.00	208.62
430.00	213.08
431.00	204.61
432.00	205.83
433.00	207.27
434.00	206.03
435.00	209.87
436.00	208.50
437.00	208.51
438.00	205.84
439.00	206.96
440.00	206.03
441.00	205.78
442.00	206.33
443.00	204.50
444.00	204.46
445.00	207.99
446.00	206.20
447.00	204.48
448.00	206.87
449.00	202.03
450.00	206.60
451.00	208.38
452.00	204.39
453.00	206.17
454.00	207.22
455.00	202.22
456.00	209.99
457.00	207.92
458.00	203.37
459.00	203.14
460.00	205.26
461.00	207.02
462.00	204.15
463.00	204.30
464.00	207.19
465.00	203.92
466.00	205.98
467.00	210.24
468.00	214.23
469.00	207.56
470.00	208.45
471.00	207.02
472.00	208.00
473.00	205.18
474.00	207.20
475.00	206.65
476.00	202.44
477.00	208.11
478.00	206.68
479.00	206.51
480.00	207.17
481.00	204.81
482.00	207.91
483.00	204.90
484.00	204.90
485.00	207.92
486.00	205.99
487.00	203.86
488.00	208.32
489.00	205.02
490.00	209.60
491.00	203.73
492.00	202.31
493.00	207.14
494.00	209.70
495.00	210.03
496.00	203.72
497.00	203.75
498.00	205.01
499.00	206.42
500.00	205.59
501.00	207.62
502.00	200.01
503.00	209.47
504.00	206.28
505.00	203.99
506.00	201.62
507.00	203.79
508.00	206.32
509.00	201.56
510.00	201.72
511.00	205.96
512.00	203.93
513.00	205.07
514.00	206.31
515.00	205.26
516.00	211.05
517.00	204.47
518.00	208.81
519.00	205.39
520.00	202.08
521.00	200.80
522.00	203.64
523.00	202.30
524.00	206.42
525.00	204.14
526.00	204.60
527.00	203.63
528.00	200.68
529.00	202.29
530.00	202.06
531.00	203.88
532.00	207.04
533.00	203.31
534.00	202.84
535.00	202.18
536.00	207.20
537.00	202.80
538.00	204.49
539.00	207.29
540.00	205.72
541.00	207.50
542.00	211.75
543.00	215.68
544.00	215.88
545.00	214.15
546.00	212.29
547.00	209.67
548.00	206.19
549.00	206.23
550.00	209.65
551.00	208.01
552.00	206.77
553.00	203.31
554.00	203.70
555.00	206.45
556.00	206.27
557.00	207.37
558.00	203.41
559.00	207.51
560.00	202.28
561.00	204.73
562.00	206.13
563.00	204.06
564.00	206.04
565.00	207.46
566.00	206.98
567.00	209.78
568.00	204.01
569.00	204.71
570.00	202.00
571.00	205.76
572.00	204.01
573.00	205.52
574.00	205.16
575.00	204.87
576.00	203.66
577.00	199.87
578.00	200.92
579.00	206.99
580.00	209.00
581.00	207.88
582.00	205.31
583.00	205.21
584.00	204.11
585.00	206.24
586.00	202.85
587.00	206.96
588.00	206.60
589.00	203.79
590.00	203.51
591.00	208.54
592.00	208.00
593.00	207.53
594.00	200.01
595.00	204.23
596.00	204.41
597.00	203.09
598.00	203.98
599.00	208.06
600.00	201.24
601.00	207.01
602.00	204.02
603.00	202.90
604.00	206.30
605.00	205.95
606.00	207.04
607.00	202.50
608.00	202.07
609.00	202.95
610.00	210.97
611.00	214.55
612.00	216.02
613.00	210.17
614.00	210.02
615.00	210.37
616.00	209.30
617.00	202.01
618.00	210.70
619.00	203.72
620.00	205.80
621.00	203.43
622.00	203.58
623.00	206.63
624.00	206.31
625.00	207.06
626.00	204.01
627.00	205.01
628.00	203.66
629.00	201.98
630.00	204.55
631.00	204.93
632.00	205.74
633.00	200.29
634.00	203.25
635.00	203.03
636.00	202.08
637.00	204.85
638.00	203.56
639.00	206.00
640.00	202.86
641.00	205.14
642.00	204.58
643.00	203.31
644.00	202.99
645.00	204.68
646.00	206.01
647.00	211.58
648.00	202.30
649.00	205.45
650.00	201.91
651.00	203.54
652.00	202.25
653.00	200.00
654.00	202.48
655.00	202.54
656.00	204.88
657.00	206.08
658.00	203.00
659.00	204.80
660.00	203.46
661.00	204.57
662.00	205.50
663.00	204.50
664.00	207.03
665.00	206.08
666.00	205.09
667.00	202.81
668.00	204.46
669.00	204.26
670.00	206.08
671.00	206.08
672.00	206.26
673.00	202.98
674.00	202.07
675.00	202.35
676.00	200.86
677.00	207.66
678.00	202.28
679.00	205.46
680.00	203.04
681.00	205.75
682.00	207.79
683.00	205.59
684.00	203.48
685.00	205.70
686.00	201.79
687.00	196.62
688.00	201.12
689.00	203.91
690.00	204.52
691.00	205.19
692.00	202.73
693.00	207.70
694.00	202.75
695.00	203.89
696.00	203.00
697.00	203.95
698.00	206.18
699.00	206.20
700.00	205.02
701.00	201.47
702.00	202.98
703.00	199.87
704.00	204.72
705.00	200.37
706.00	206.89
707.00	204.13
708.00	203.11
709.00	200.37
710.00	202.99
711.00	203.13
712.00	203.25
713.00	203.55
714.00	205.30
715.00	203.46
716.00	203.56
717.00	203.71
718.00	204.68
719.00	204.37
720.00	201.85
721.00	205.02
722.00	201.16
723.00	208.31
724.00	203.32
725.00	203.43
726.00	204.68
727.00	207.17
728.00	203.22
729.00	204.14
730.00	204.93
731.00	203.15
732.00	206.60
733.00	205.93
734.00	202.36
735.00	205.18
736.00	200.17
737.00	203.54
738.00	204.25
739.00	198.98
740.00	203.73
741.00	200.90
742.00	205.92
743.00	204.06
744.00	202.22
745.00	204.97
746.00	204.17
747.00	206.10
748.00	202.49
749.00	203.68
750.00	202.64
751.00	201.62
752.00	201.08
753.00	203.03
754.00	203.79
755.00	203.23
756.00	203.84
757.00	200.23
758.00	202.46
759.00	200.30
760.00	202.79
761.00	202.11
762.00	200.94
763.00	201.08
764.00	204.00
765.00	202.85
766.00	200.61
767.00	204.90
768.00	203.73
769.00	204.36
770.00	203.10
771.00	203.30
772.00	203.39
773.00	203.97
774.00	200.30
775.00	202.19
776.00	201.66
777.00	200.61
778.00	203.00
779.00	200.96
780.00	206.19
781.00	201.45
782.00	202.69
783.00	204.53
784.00	203.72
785.00	202.55
786.00	208.35
787.00	201.09
788.00	203.88
789.00	205.03
790.00	202.06
791.00	203.06
792.00	204.41
793.00	200.95
794.00	204.11
795.00	200.62
796.00	202.44
797.00	206.39
798.00	205.97
799.00	210.70
800.00	201.66
801.00	204.75
802.00	205.62
803.00	205.13
804.00	203.57
805.00	196.54
806.00	204.89
807.00	200.96
808.00	207.71
809.00	203.60
810.00	202.07
811.00	201.73
812.00	204.76
813.00	202.91
814.00	203.97
815.00	197.55
816.00	202.05
817.00	201.67
818.00	204.55
819.00	202.66
820.00	208.02
821.00	205.97
822.00	200.50
823.00	208.47
824.00	203.16
825.00	202.75
826.00	204.16
827.00	201.20
828.00	201.84
829.00	202.79
830.00	201.01
831.00	199.44
832.00	203.70
833.00	206.15
834.00	202.80
835.00	202.25
836.00	204.29
837.00	200.87
838.00	202.75
839.00	203.21
840.00	201.19
841.00	207.19
842.00	203.27
843.00	204.04
844.00	206.86
845.00	203.01
846.00	205.03
847.00	202.86
848.00	204.22
849.00	207.24
850.00	198.42
851.00	200.12
852.00	200.42
853.00	203.66
854.00	206.05
855.00	201.93
856.00	204.61
857.00	201.04
858.00	204.85
859.00	202.03
860.00	201.88
861.00	202.71
862.00	200.60
863.00	201.94
864.00	201.66
865.00	201.67
866.00	205.45
867.00	202.65
868.00	202.99
869.00	199.49
870.00	203.45
871.00	205.67
872.00	204.97
873.00	204.14
874.00	204.79
875.00	206.91
876.00	200.89
877.00	201.92
878.00	205.72
879.00	200.80
880.00	203.87
881.00	203.22
882.00	202.12
883.00	201.94
884.00	201.00
885.00	200.39
886.00	204.36
887.00	207.83
888.00	202.04
889.00	204.43
890.00	204.11
891.00	202.81
892.00	208.16
893.00	201.73
894.00	206.78
895.00	207.18
896.00	205.11
897.00	203.39
898.00	207.82
899.00	205.63
900.00	209.17
901.00	206.13
902.00	200.33
903.00	203.82
904.00	202.86
905.00	205.77
906.00	202.48
907.00	206.11
908.00	202.18
909.00	203.02
910.00	206.18
911.00	202.84
912.00	205.53
913.00	204.84
914.00	204.81
915.00	202.78
916.00	200.73
917.00	201.48
918.00	201.18
919.00	203.94
920.00	202.64
921.00	201.20
922.00	199.64
923.00	204.98
924.00	207.45
925.00	203.32
926.00	204.00
927.00	200.33
928.00	202.99
929.00	203.43
930.00	204.13
931.00	197.63
932.00	199.16
933.00	205.43
934.00	201.92
935.00	203.64
936.00	203.82
937.00	199.89
938.00	201.07
939.00	206.01
940.00	202.20
941.00	203.77
942.00	208.06
943.00	201.23
944.00	205.78
945.00	203.87
946.00	205.15
947.00	206.98
948.00	202.11
949.00	203.91
950.00	204.39
951.00	203.54
952.00	205.01
953.00	205.58
954.00	201.91
955.00	204.87
956.00	202.98
957.00	203.25
958.00	202.25
959.00	203.00
960.00	204.16
961.00	206.07
962.00	204.66
963.00	202.81
964.00	200.56
965.00	206.86
966.00	202.29
967.00	205.03
968.00	202.99
969.00	204.79
970.00	202.91
971.00	203.16
972.00	198.91
973.00	201.92
974.00	202.02
975.00	200.75
976.00	201.91
977.00	202.28
978.00	202.15
979.00	204.34
980.00	202.41
981.00	208.21
982.00	202.14
983.00	203.19
984.00	200.86
985.00	204.06
986.00	206.60
987.00	206.19
988.00	205.28
989.00	201.91
990.00	204.85
991.00	205.39
992.00	206.07
993.00	204.74
994.00	201.24
995.00	204.25
996.00	202.77
997.00	206.92
998.00	204.60
999.00	205.64
1000.00	200.07
>>>>>End Processed Spectral Data<<<<<
