SpectraSuite Data File
++++++++++++++++++++++++++++++++++++
Date: Tue Oct 18 14:26:38 CDT 2011
User: Helimak
Dark Spectrum Present: No
Reference Spectrum Present: No
Number of Sampled Component Spectra: 1
Spectrometers: USB2G37154
Integration Time (usec): 100000 (USB2G37154)
Spectra Averaged: 1 (USB2G37154)
Boxcar Smoothing: 0 (USB2G37154)
Correct for Electrical Dark: No (USB2G37154)
Strobe/Lamp Enabled: No (USB2G37154)
Correct for Detector Non-linearity: No (USB2G37154)
Correct for Stray Light: No (USB2G37154)
Number of Pixels in Processed Spectrum: 651
>>>>>Begin Processed Spectral Data<<<<<
350.00	201.23
351.00	205.11
352.00	198.90
353.00	200.01
354.00	206.86
355.00	203.87
356.00	200.63
357.00	204.27
358.00	203.03
359.00	199.42
360.00	200.60
361.00	203.28
362.00	204.47
363.00	203.21
364.00	205.22
365.00	201.66
366.00	199.01
367.00	201.90
368.00	205.46
369.00	201.00
370.00	203.03
371.00	203.52
372.00	206.98
373.00	207.33
374.00	199.12
375.00	206.83
376.00	202.15
377.00	204.95
378.00	202.95
379.00	201.78
380.00	206.55
381.00	203.11
382.00	203.31
383.00	203.87
384.00	202.09
385.00	201.85
386.00	204.98
387.00	204.28
388.00	205.43
389.00	203.97
390.00	206.47
391.00	203.43
392.00	205.20
393.00	203.23
394.00	204.75
395.00	201.09
396.00	206.94
397.00	204.02
398.00	206.28
399.00	200.45
400.00	201.09
401.00	204.19
402.00	202.74
403.00	207.57
404.00	205.43
405.00	205.96
406.00	203.00
407.00	208.78
408.00	205.24
409.00	207.38
410.00	205.12
411.00	203.06
412.00	203.64
413.00	205.73
414.00	202.38
415.00	208.73
416.00	205.95
417.00	204.36
418.00	208.65
419.00	207.22
420.00	205.06
421.00	205.91
422.00	209.08
423.00	206.72
424.00	206.55
425.00	207.76
426.00	203.02
427.00	208.04
428.00	204.59
429.00	205.26
430.00	204.50
431.00	202.28
432.00	206.64
433.00	205.46
434.00	210.04
435.00	205.98
436.00	204.14
437.00	209.14
438.00	208.27
439.00	204.94
440.00	206.24
441.00	207.06
442.00	207.56
443.00	202.30
444.00	206.21
445.00	206.00
446.00	205.56
447.00	208.68
448.00	205.10
449.00	205.99
450.00	202.58
451.00	201.49
452.00	208.41
453.00	207.97
454.00	208.63
455.00	201.92
456.00	204.22
457.00	205.06
458.00	207.56
459.00	205.00
460.00	206.20
461.00	206.94
462.00	206.74
463.00	203.41
464.00	203.18
465.00	206.78
466.00	205.62
467.00	199.59
468.00	206.50
469.00	203.24
470.00	203.90
471.00	206.13
472.00	202.68
473.00	207.43
474.00	208.02
475.00	205.89
476.00	206.21
477.00	209.25
478.00	204.34
479.00	202.26
480.00	205.89
481.00	205.40
482.00	205.15
483.00	205.45
484.00	205.06
485.00	203.75
486.00	205.95
487.00	204.74
488.00	204.12
489.00	201.02
490.00	206.18
491.00	205.32
492.00	210.11
493.00	209.78
494.00	201.32
495.00	208.13
496.00	208.73
497.00	200.55
498.00	207.09
499.00	203.36
500.00	207.41
501.00	202.88
502.00	204.00
503.00	208.24
504.00	204.32
505.00	204.38
506.00	206.74
507.00	204.34
508.00	206.30
509.00	204.78
510.00	204.97
511.00	205.04
512.00	208.25
513.00	206.51
514.00	205.01
515.00	204.04
516.00	206.10
517.00	205.47
518.00	200.79
519.00	207.54
520.00	204.09
521.00	206.98
522.00	204.00
523.00	204.37
524.00	203.18
525.00	206.96
526.00	208.12
527.00	206.41
528.00	205.33
529.00	205.51
530.00	203.75
531.00	200.48
532.00	202.53
533.00	202.60
534.00	198.28
535.00	191.99
536.00	205.15
537.00	206.32
538.00	203.04
539.00	204.28
540.00	204.67
541.00	204.13
542.00	201.60
543.00	203.09
544.00	206.63
545.00	200.41
546.00	202.65
547.00	208.04
548.00	205.41
549.00	204.55
550.00	203.82
551.00	202.03
552.00	203.37
553.00	206.32
554.00	204.40
555.00	201.82
556.00	204.06
557.00	204.26
558.00	205.20
559.00	201.59
560.00	203.88
561.00	203.50
562.00	202.91
563.00	198.61
564.00	201.63
565.00	206.57
566.00	205.23
567.00	199.50
568.00	205.12
569.00	207.37
570.00	209.61
571.00	208.48
572.00	203.07
573.00	207.37
574.00	203.98
575.00	200.26
576.00	205.22
577.00	199.64
578.00	208.98
579.00	203.94
580.00	205.59
581.00	205.08
582.00	205.05
583.00	204.75
584.00	201.15
585.00	204.83
586.00	205.65
587.00	210.07
588.00	202.31
589.00	201.61
590.00	202.53
591.00	201.62
592.00	204.62
593.00	198.51
594.00	201.03
595.00	204.25
596.00	203.86
597.00	205.30
598.00	205.06
599.00	201.89
600.00	189.53
601.00	201.01
602.00	206.72
603.00	207.81
604.00	204.97
605.00	203.74
606.00	203.05
607.00	208.15
608.00	204.29
609.00	204.96
610.00	205.59
611.00	204.69
612.00	203.77
613.00	205.75
614.00	206.73
615.00	202.02
616.00	199.29
617.00	205.98
618.00	202.54
619.00	205.11
620.00	207.20
621.00	207.61
622.00	206.89
623.00	202.18
624.00	205.28
625.00	205.24
626.00	203.91
627.00	202.17
628.00	204.62
629.00	205.41
630.00	205.38
631.00	204.05
632.00	199.40
633.00	203.39
634.00	204.20
635.00	204.04
636.00	205.97
637.00	206.70
638.00	204.89
639.00	203.00
640.00	203.76
641.00	204.97
642.00	203.91
643.00	204.14
644.00	205.25
645.00	201.31
646.00	205.98
647.00	203.44
648.00	203.41
649.00	200.44
650.00	205.10
651.00	204.47
652.00	206.35
653.00	203.74
654.00	205.32
655.00	201.41
656.00	203.57
657.00	201.13
658.00	207.00
659.00	205.13
660.00	203.71
661.00	201.17
662.00	204.48
663.00	204.24
664.00	206.96
665.00	204.94
666.00	202.23
667.00	206.80
668.00	203.47
669.00	202.40
670.00	204.17
671.00	201.66
672.00	206.19
673.00	204.00
674.00	204.91
675.00	205.00
676.00	202.12
677.00	202.50
678.00	205.57
679.00	199.95
680.00	202.77
681.00	203.55
682.00	202.42
683.00	203.06
684.00	207.26
685.00	205.92
686.00	202.04
687.00	205.18
688.00	201.47
689.00	206.06
690.00	205.43
691.00	202.35
692.00	201.84
693.00	200.25
694.00	207.44
695.00	205.01
696.00	206.00
697.00	207.15
698.00	203.95
699.00	205.94
700.00	203.03
701.00	204.47
702.00	201.67
703.00	205.03
704.00	199.97
705.00	203.48
706.00	202.25
707.00	199.56
708.00	204.43
709.00	203.08
710.00	203.68
711.00	202.21
712.00	203.02
713.00	199.70
714.00	203.67
715.00	201.96
716.00	201.41
717.00	200.65
718.00	205.37
719.00	204.01
720.00	202.41
721.00	201.42
722.00	204.18
723.00	206.54
724.00	201.72
725.00	209.96
726.00	201.78
727.00	202.01
728.00	204.71
729.00	204.50
730.00	198.91
731.00	203.68
732.00	201.94
733.00	204.42
734.00	202.07
735.00	199.63
736.00	196.29
737.00	205.59
738.00	202.29
739.00	202.17
740.00	205.32
741.00	206.95
742.00	201.00
743.00	200.98
744.00	202.00
745.00	211.79
746.00	205.88
747.00	208.72
748.00	211.59
749.00	199.88
750.00	202.27
751.00	200.75
752.00	200.99
753.00	200.67
754.00	200.92
755.00	201.65
756.00	201.84
757.00	202.43
758.00	204.92
759.00	203.87
760.00	205.25
761.00	203.46
762.00	205.64
763.00	202.94
764.00	200.98
765.00	207.11
766.00	201.65
767.00	203.20
768.00	205.17
769.00	200.54
770.00	200.99
771.00	207.03
772.00	203.62
773.00	202.63
774.00	199.39
775.00	208.44
776.00	200.62
777.00	201.20
778.00	203.99
779.00	201.95
780.00	203.85
781.00	204.46
782.00	203.76
783.00	200.87
784.00	203.72
785.00	203.64
786.00	203.17
787.00	205.12
788.00	200.81
789.00	199.99
790.00	201.19
791.00	200.38
792.00	202.21
793.00	202.87
794.00	199.04
795.00	204.21
796.00	203.32
797.00	206.87
798.00	205.29
799.00	203.78
800.00	203.90
801.00	199.65
802.00	206.53
803.00	201.78
804.00	200.74
805.00	202.87
806.00	204.28
807.00	204.07
808.00	204.83
809.00	203.85
810.00	202.45
811.00	203.60
812.00	203.59
813.00	201.68
814.00	203.04
815.00	203.16
816.00	203.60
817.00	203.83
818.00	200.66
819.00	203.50
820.00	204.45
821.00	200.92
822.00	198.54
823.00	208.31
824.00	203.75
825.00	209.74
826.00	206.09
827.00	205.43
828.00	202.07
829.00	204.88
830.00	204.94
831.00	203.27
832.00	201.03
833.00	206.83
834.00	203.95
835.00	204.02
836.00	199.08
837.00	203.68
838.00	200.92
839.00	204.06
840.00	200.93
841.00	203.94
842.00	201.12
843.00	203.86
844.00	206.49
845.00	202.06
846.00	203.62
847.00	203.89
848.00	203.61
849.00	202.40
850.00	202.99
851.00	203.79
852.00	205.06
853.00	204.65
854.00	206.20
855.00	202.55
856.00	210.31
857.00	199.49
858.00	200.35
859.00	205.81
860.00	205.05
861.00	204.87
862.00	200.83
863.00	199.62
864.00	203.05
865.00	200.35
866.00	201.30
867.00	199.82
868.00	203.97
869.00	202.77
870.00	205.31
871.00	205.19
872.00	206.00
873.00	199.13
874.00	200.42
875.00	200.65
876.00	213.69
877.00	200.38
878.00	201.42
879.00	203.41
880.00	202.00
881.00	201.67
882.00	204.90
883.00	210.50
884.00	200.00
885.00	202.27
886.00	204.09
887.00	204.87
888.00	200.72
889.00	205.52
890.00	201.85
891.00	204.00
892.00	207.33
893.00	200.19
894.00	198.62
895.00	205.93
896.00	203.47
897.00	203.57
898.00	199.88
899.00	200.89
900.00	206.35
901.00	200.85
902.00	204.24
903.00	205.59
904.00	200.18
905.00	202.15
906.00	202.79
907.00	202.23
908.00	202.21
909.00	201.65
910.00	199.66
911.00	208.27
912.00	202.27
913.00	202.83
914.00	205.48
915.00	200.92
916.00	201.42
917.00	203.98
918.00	205.39
919.00	201.33
920.00	201.10
921.00	205.40
922.00	201.52
923.00	205.90
924.00	201.52
925.00	206.17
926.00	203.00
927.00	201.84
928.00	205.05
929.00	203.88
930.00	204.61
931.00	204.05
932.00	203.04
933.00	203.63
934.00	202.83
935.00	199.92
936.00	202.62
937.00	203.32
938.00	202.89
939.00	203.66
940.00	202.11
941.00	203.58
942.00	204.94
943.00	201.62
944.00	204.32
945.00	204.85
946.00	205.86
947.00	205.05
948.00	205.43
949.00	204.22
950.00	205.06
951.00	206.55
952.00	204.01
953.00	203.06
954.00	202.75
955.00	205.10
956.00	201.68
957.00	203.05
958.00	201.30
959.00	202.94
960.00	201.17
961.00	200.10
962.00	204.62
963.00	198.50
964.00	205.40
965.00	201.60
966.00	203.31
967.00	201.92
968.00	203.01
969.00	203.35
970.00	197.72
971.00	202.69
972.00	201.94
973.00	206.48
974.00	201.61
975.00	200.75
976.00	205.05
977.00	201.33
978.00	202.46
979.00	203.94
980.00	204.99
981.00	205.00
982.00	202.80
983.00	208.14
984.00	204.97
985.00	201.18
986.00	207.16
987.00	204.41
988.00	209.10
989.00	202.19
990.00	205.24
991.00	203.06
992.00	200.54
993.00	201.07
994.00	200.20
995.00	202.86
996.00	202.41
997.00	204.18
998.00	205.66
999.00	203.67
1000.00	201.22
>>>>>End Processed Spectral Data<<<<<
