SpectraSuite Data File
++++++++++++++++++++++++++++++++++++
Date: Tue Oct 18 14:26:38 CDT 2011
User: Helimak
Dark Spectrum Present: No
Reference Spectrum Present: No
Number of Sampled Component Spectra: 1
Spectrometers: USB2G37154
Integration Time (usec): 100000 (USB2G37154)
Spectra Averaged: 1 (USB2G37154)
Boxcar Smoothing: 0 (USB2G37154)
Correct for Electrical Dark: No (USB2G37154)
Strobe/Lamp Enabled: No (USB2G37154)
Correct for Detector Non-linearity: No (USB2G37154)
Correct for Stray Light: No (USB2G37154)
Number of Pixels in Processed Spectrum: 651
>>>>>Begin Processed Spectral Data<<<<<
350.00	201.27
351.00	203.16
352.00	199.86
353.00	202.95
354.00	202.56
355.00	201.08
356.00	207.09
357.00	205.36
358.00	207.34
359.00	205.57
360.00	203.85
361.00	203.83
362.00	202.99
363.00	204.16
364.00	199.20
365.00	206.81
366.00	202.64
367.00	201.83
368.00	201.42
369.00	205.46
370.00	201.99
371.00	207.38
372.00	203.74
373.00	200.90
374.00	203.60
375.00	207.39
376.00	201.02
377.00	205.11
378.00	204.31
379.00	203.07
380.00	203.05
381.00	205.62
382.00	203.95
383.00	205.96
384.00	201.96
385.00	210.21
386.00	208.99
387.00	200.35
388.00	201.91
389.00	204.85
390.00	206.23
391.00	204.81
392.00	204.66
393.00	206.10
394.00	205.41
395.00	203.96
396.00	203.07
397.00	208.10
398.00	207.45
399.00	205.86
400.00	200.47
401.00	202.48
402.00	201.62
403.00	206.07
404.00	206.05
405.00	205.35
406.00	203.00
407.00	202.46
408.00	205.18
409.00	208.70
410.00	209.85
411.00	202.43
412.00	207.15
413.00	208.01
414.00	204.32
415.00	209.83
416.00	203.07
417.00	209.06
418.00	202.35
419.00	206.64
420.00	206.21
421.00	207.12
422.00	206.70
423.00	206.02
424.00	205.55
425.00	207.36
426.00	206.56
427.00	206.16
428.00	205.45
429.00	204.38
430.00	200.59
431.00	205.57
432.00	203.79
433.00	208.15
434.00	202.02
435.00	205.40
436.00	205.50
437.00	210.63
438.00	202.67
439.00	205.75
440.00	204.83
441.00	207.42
442.00	204.16
443.00	203.16
444.00	206.04
445.00	204.05
446.00	211.66
447.00	207.21
448.00	208.89
449.00	206.87
450.00	206.13
451.00	203.15
452.00	204.30
453.00	204.86
454.00	207.15
455.00	206.51
456.00	206.38
457.00	201.12
458.00	208.06
459.00	207.17
460.00	202.87
461.00	204.56
462.00	207.87
463.00	205.73
464.00	203.54
465.00	205.77
466.00	207.89
467.00	207.24
468.00	204.78
469.00	201.84
470.00	203.41
471.00	202.95
472.00	202.96
473.00	206.00
474.00	204.68
475.00	207.60
476.00	204.24
477.00	203.83
478.00	205.55
479.00	205.34
480.00	201.28
481.00	206.05
482.00	201.19
483.00	202.41
484.00	204.66
485.00	203.95
486.00	206.36
487.00	202.59
488.00	204.73
489.00	209.97
490.00	206.21
491.00	203.64
492.00	203.54
493.00	203.99
494.00	203.49
495.00	200.97
496.00	202.61
497.00	208.32
498.00	203.91
499.00	203.73
500.00	205.37
501.00	204.08
502.00	206.00
503.00	202.95
504.00	207.50
505.00	201.79
506.00	203.81
507.00	200.99
508.00	207.29
509.00	202.40
510.00	200.73
511.00	206.94
512.00	206.83
513.00	203.30
514.00	205.78
515.00	206.18
516.00	204.03
517.00	203.69
518.00	206.45
519.00	204.48
520.00	203.68
521.00	200.42
522.00	203.27
523.00	206.83
524.00	202.45
525.00	206.28
526.00	206.64
527.00	203.77
528.00	203.40
529.00	205.96
530.00	203.98
531.00	205.08
532.00	203.70
533.00	202.79
534.00	208.47
535.00	206.91
536.00	202.59
537.00	205.23
538.00	205.53
539.00	204.25
540.00	202.71
541.00	202.58
542.00	206.17
543.00	204.52
544.00	204.89
545.00	206.72
546.00	201.76
547.00	204.63
548.00	203.61
549.00	201.10
550.00	204.43
551.00	204.99
552.00	203.24
553.00	205.79
554.00	202.33
555.00	202.36
556.00	200.89
557.00	202.85
558.00	202.78
559.00	204.59
560.00	202.55
561.00	204.38
562.00	204.84
563.00	205.11
564.00	201.76
565.00	203.82
566.00	206.22
567.00	207.51
568.00	203.95
569.00	198.63
570.00	207.64
571.00	207.85
572.00	202.99
573.00	207.02
574.00	203.11
575.00	203.68
576.00	203.34
577.00	203.62
578.00	202.28
579.00	202.48
580.00	206.06
581.00	202.86
582.00	203.59
583.00	203.28
584.00	206.14
585.00	204.20
586.00	201.44
587.00	205.14
588.00	202.68
589.00	203.16
590.00	205.53
591.00	202.09
592.00	205.20
593.00	200.52
594.00	204.01
595.00	202.93
596.00	201.43
597.00	204.16
598.00	204.45
599.00	202.84
600.00	204.05
601.00	203.96
602.00	203.17
603.00	208.73
604.00	206.15
605.00	202.34
606.00	201.38
607.00	203.01
608.00	204.67
609.00	206.00
610.00	204.17
611.00	205.66
612.00	205.26
613.00	206.29
614.00	202.40
615.00	205.83
616.00	206.65
617.00	207.00
618.00	210.05
619.00	206.90
620.00	201.53
621.00	206.54
622.00	203.25
623.00	205.12
624.00	204.01
625.00	207.44
626.00	201.84
627.00	203.40
628.00	205.13
629.00	204.51
630.00	204.54
631.00	205.59
632.00	207.64
633.00	206.36
634.00	206.18
635.00	204.96
636.00	202.25
637.00	205.34
638.00	205.06
639.00	200.43
640.00	205.47
641.00	205.16
642.00	199.74
643.00	207.75
644.00	202.07
645.00	200.01
646.00	207.02
647.00	200.95
648.00	205.44
649.00	200.54
650.00	203.33
651.00	200.19
652.00	203.80
653.00	200.44
654.00	205.52
655.00	202.35
656.00	202.20
657.00	205.98
658.00	202.00
659.00	198.87
660.00	203.87
661.00	203.23
662.00	208.11
663.00	206.42
664.00	209.74
665.00	205.77
666.00	201.92
667.00	208.73
668.00	205.46
669.00	203.90
670.00	202.01
671.00	204.94
672.00	202.07
673.00	205.00
674.00	206.16
675.00	202.18
676.00	205.91
677.00	207.49
678.00	201.27
679.00	205.09
680.00	205.12
681.00	204.62
682.00	205.31
683.00	204.50
684.00	207.17
685.00	198.99
686.00	202.06
687.00	207.32
688.00	203.25
689.00	202.34
690.00	201.28
691.00	205.21
692.00	201.15
693.00	203.75
694.00	201.00
695.00	203.01
696.00	205.00
697.00	203.01
698.00	206.94
699.00	204.80
700.00	202.06
701.00	201.21
702.00	201.71
703.00	200.74
704.00	202.26
705.00	204.98
706.00	203.25
707.00	205.56
708.00	203.47
709.00	206.96
710.00	205.02
711.00	203.11
712.00	199.38
713.00	205.39
714.00	205.94
715.00	197.76
716.00	201.71
717.00	202.85
718.00	205.72
719.00	203.55
720.00	206.02
721.00	203.96
722.00	201.53
723.00	204.95
724.00	206.00
725.00	213.30
726.00	201.82
727.00	205.78
728.00	203.66
729.00	197.42
730.00	200.49
731.00	205.60
732.00	202.09
733.00	203.98
734.00	204.59
735.00	202.25
736.00	201.38
737.00	201.01
738.00	204.21
739.00	202.07
740.00	201.38
741.00	204.05
742.00	201.02
743.00	203.88
744.00	203.02
745.00	208.05
746.00	204.27
747.00	204.60
748.00	198.09
749.00	202.58
750.00	205.94
751.00	201.60
752.00	203.53
753.00	203.34
754.00	203.53
755.00	202.10
756.00	204.80
757.00	198.54
758.00	205.62
759.00	203.26
760.00	199.73
761.00	203.88
762.00	202.07
763.00	205.04
764.00	207.03
765.00	207.17
766.00	201.25
767.00	204.32
768.00	203.61
769.00	201.63
770.00	205.25
771.00	205.58
772.00	200.30
773.00	203.60
774.00	202.10
775.00	202.28
776.00	200.91
777.00	199.16
778.00	200.00
779.00	203.89
780.00	209.57
781.00	203.91
782.00	204.96
783.00	202.71
784.00	204.12
785.00	203.83
786.00	203.69
787.00	202.64
788.00	204.43
789.00	204.03
790.00	202.03
791.00	203.30
792.00	201.51
793.00	203.94
794.00	203.97
795.00	202.32
796.00	204.87
797.00	200.77
798.00	205.97
799.00	207.98
800.00	205.09
801.00	204.09
802.00	201.21
803.00	207.62
804.00	204.02
805.00	202.02
806.00	202.52
807.00	199.90
808.00	206.38
809.00	203.34
810.00	204.87
811.00	204.02
812.00	203.75
813.00	204.75
814.00	203.02
815.00	204.46
816.00	201.93
817.00	204.59
818.00	204.63
819.00	201.54
820.00	202.27
821.00	202.01
822.00	201.84
823.00	205.43
824.00	205.54
825.00	208.20
826.00	203.80
827.00	199.66
828.00	200.07
829.00	201.26
830.00	204.09
831.00	205.46
832.00	203.56
833.00	203.77
834.00	203.66
835.00	204.64
836.00	200.05
837.00	205.96
838.00	207.21
839.00	205.94
840.00	204.14
841.00	204.52
842.00	203.47
843.00	212.36
844.00	201.64
845.00	204.91
846.00	205.90
847.00	202.22
848.00	202.10
849.00	202.22
850.00	208.76
851.00	200.54
852.00	202.35
853.00	200.33
854.00	202.76
855.00	200.21
856.00	207.47
857.00	204.87
858.00	207.68
859.00	202.19
860.00	202.36
861.00	204.82
862.00	201.42
863.00	201.09
864.00	206.58
865.00	202.08
866.00	201.48
867.00	201.34
868.00	201.98
869.00	204.18
870.00	202.79
871.00	202.04
872.00	205.00
873.00	200.42
874.00	202.46
875.00	202.83
876.00	203.02
877.00	202.37
878.00	203.70
879.00	203.87
880.00	202.85
881.00	202.45
882.00	200.21
883.00	198.40
884.00	200.01
885.00	202.09
886.00	203.11
887.00	207.77
888.00	201.80
889.00	202.27
890.00	205.36
891.00	202.93
892.00	203.52
893.00	202.21
894.00	205.68
895.00	205.75
896.00	204.03
897.00	202.13
898.00	204.79
899.00	203.02
900.00	202.15
901.00	205.80
902.00	204.82
903.00	205.47
904.00	207.99
905.00	201.82
906.00	207.37
907.00	204.21
908.00	202.27
909.00	206.63
910.00	199.97
911.00	203.25
912.00	200.56
913.00	201.73
914.00	203.18
915.00	206.03
916.00	205.89
917.00	201.87
918.00	202.27
919.00	203.00
920.00	205.18
921.00	202.25
922.00	201.93
923.00	204.97
924.00	200.09
925.00	203.29
926.00	202.01
927.00	204.69
928.00	199.96
929.00	202.05
930.00	201.07
931.00	205.14
932.00	202.17
933.00	201.96
934.00	203.39
935.00	206.44
936.00	208.20
937.00	204.02
938.00	205.46
939.00	205.38
940.00	204.23
941.00	204.61
942.00	202.05
943.00	203.34
944.00	204.42
945.00	204.74
946.00	201.91
947.00	202.98
948.00	203.82
949.00	203.69
950.00	204.60
951.00	207.42
952.00	204.04
953.00	207.34
954.00	202.10
955.00	203.57
956.00	202.81
957.00	204.31
958.00	203.72
959.00	203.96
960.00	202.93
961.00	204.85
962.00	204.33
963.00	205.06
964.00	205.42
965.00	203.09
966.00	201.87
967.00	203.02
968.00	207.01
969.00	200.52
970.00	204.73
971.00	206.35
972.00	203.87
973.00	212.20
974.00	204.94
975.00	204.15
976.00	202.61
977.00	199.99
978.00	207.48
979.00	203.37
980.00	204.39
981.00	204.66
982.00	202.37
983.00	193.31
984.00	207.68
985.00	205.44
986.00	203.42
987.00	200.78
988.00	205.26
989.00	201.29
990.00	205.99
991.00	201.01
992.00	203.58
993.00	201.96
994.00	203.37
995.00	202.99
996.00	204.04
997.00	204.62
998.00	201.66
999.00	204.67
1000.00	205.15
>>>>>End Processed Spectral Data<<<<<
