SpectraSuite Data File
++++++++++++++++++++++++++++++++++++
Date: Tue Oct 18 14:26:37 CDT 2011
User: Helimak
Dark Spectrum Present: No
Reference Spectrum Present: No
Number of Sampled Component Spectra: 1
Spectrometers: USB2G37154
Integration Time (usec): 100000 (USB2G37154)
Spectra Averaged: 1 (USB2G37154)
Boxcar Smoothing: 0 (USB2G37154)
Correct for Electrical Dark: No (USB2G37154)
Strobe/Lamp Enabled: No (USB2G37154)
Correct for Detector Non-linearity: No (USB2G37154)
Correct for Stray Light: No (USB2G37154)
Number of Pixels in Processed Spectrum: 651
>>>>>Begin Processed Spectral Data<<<<<
350.00	202.33
351.00	201.72
352.00	203.11
353.00	202.69
354.00	199.64
355.00	201.37
356.00	203.43
357.00	201.03
358.00	201.49
359.00	199.25
360.00	199.51
361.00	203.69
362.00	204.44
363.00	203.03
364.00	200.55
365.00	205.25
366.00	203.19
367.00	204.02
368.00	205.80
369.00	202.68
370.00	206.01
371.00	203.27
372.00	204.56
373.00	204.13
374.00	204.07
375.00	204.55
376.00	201.03
377.00	202.65
378.00	205.73
379.00	204.20
380.00	202.42
381.00	202.31
382.00	201.99
383.00	204.18
384.00	199.61
385.00	207.14
386.00	206.01
387.00	204.18
388.00	203.66
389.00	205.00
390.00	204.32
391.00	206.56
392.00	203.78
393.00	205.09
394.00	206.66
395.00	203.91
396.00	204.00
397.00	203.90
398.00	204.12
399.00	203.07
400.00	205.07
401.00	206.03
402.00	203.41
403.00	204.43
404.00	204.56
405.00	207.48
406.00	204.01
407.00	203.41
408.00	205.05
409.00	206.09
410.00	202.44
411.00	200.97
412.00	203.30
413.00	202.99
414.00	198.77
415.00	207.06
416.00	208.86
417.00	209.47
418.00	206.22
419.00	203.27
420.00	206.27
421.00	206.12
422.00	210.30
423.00	204.60
424.00	206.88
425.00	204.75
426.00	205.27
427.00	206.94
428.00	204.08
429.00	202.52
430.00	207.49
431.00	206.67
432.00	203.15
433.00	205.97
434.00	205.17
435.00	205.25
436.00	210.25
437.00	207.58
438.00	205.66
439.00	206.59
440.00	204.38
441.00	206.48
442.00	208.78
443.00	200.79
444.00	204.41
445.00	204.06
446.00	206.75
447.00	202.85
448.00	205.63
449.00	203.94
450.00	204.14
451.00	206.91
452.00	205.43
453.00	207.15
454.00	204.85
455.00	206.21
456.00	203.36
457.00	202.80
458.00	205.04
459.00	203.81
460.00	205.80
461.00	203.38
462.00	203.34
463.00	205.86
464.00	204.89
465.00	211.69
466.00	206.72
467.00	204.21
468.00	204.91
469.00	205.19
470.00	206.77
471.00	207.78
472.00	206.63
473.00	202.50
474.00	205.35
475.00	201.29
476.00	203.16
477.00	204.56
478.00	200.72
479.00	208.29
480.00	204.84
481.00	209.52
482.00	203.62
483.00	201.62
484.00	206.22
485.00	202.30
486.00	207.21
487.00	201.05
488.00	207.40
489.00	204.07
490.00	206.89
491.00	203.75
492.00	204.65
493.00	203.90
494.00	204.63
495.00	205.68
496.00	201.36
497.00	206.83
498.00	206.31
499.00	204.12
500.00	206.82
501.00	204.85
502.00	203.00
503.00	208.31
504.00	205.16
505.00	200.67
506.00	202.44
507.00	200.84
508.00	204.28
509.00	206.50
510.00	207.96
511.00	204.98
512.00	201.76
513.00	203.36
514.00	205.29
515.00	205.91
516.00	203.71
517.00	202.22
518.00	205.35
519.00	201.86
520.00	206.92
521.00	202.42
522.00	207.35
523.00	207.15
524.00	200.85
525.00	204.86
526.00	207.87
527.00	202.38
528.00	201.79
529.00	201.87
530.00	203.08
531.00	204.64
532.00	205.45
533.00	201.24
534.00	205.65
535.00	205.84
536.00	203.30
537.00	203.10
538.00	203.57
539.00	201.79
540.00	204.75
541.00	199.53
542.00	198.80
543.00	203.33
544.00	204.43
545.00	202.76
546.00	204.67
547.00	207.76
548.00	204.85
549.00	203.02
550.00	203.55
551.00	201.03
552.00	203.35
553.00	204.61
554.00	200.19
555.00	203.80
556.00	207.43
557.00	206.27
558.00	205.28
559.00	207.14
560.00	206.51
561.00	203.75
562.00	199.09
563.00	207.44
564.00	206.34
565.00	207.06
566.00	201.44
567.00	204.30
568.00	207.11
569.00	202.96
570.00	203.13
571.00	209.57
572.00	207.17
573.00	204.09
574.00	208.91
575.00	204.66
576.00	197.21
577.00	204.15
578.00	205.99
579.00	206.31
580.00	205.39
581.00	206.08
582.00	203.29
583.00	201.62
584.00	204.38
585.00	206.45
586.00	202.62
587.00	204.08
588.00	203.68
589.00	201.78
590.00	204.41
591.00	202.77
592.00	201.37
593.00	202.88
594.00	206.03
595.00	201.42
596.00	201.20
597.00	202.46
598.00	205.18
599.00	207.78
600.00	207.46
601.00	203.19
602.00	203.07
603.00	202.84
604.00	204.35
605.00	205.46
606.00	202.60
607.00	204.87
608.00	203.92
609.00	200.97
610.00	201.88
611.00	205.87
612.00	203.78
613.00	203.38
614.00	204.67
615.00	204.32
616.00	205.10
617.00	203.98
618.00	204.15
619.00	206.77
620.00	199.45
621.00	200.84
622.00	203.13
623.00	206.39
624.00	203.01
625.00	205.77
626.00	197.03
627.00	200.33
628.00	204.44
629.00	203.99
630.00	203.34
631.00	204.14
632.00	203.71
633.00	207.20
634.00	206.03
635.00	202.93
636.00	201.14
637.00	203.30
638.00	203.22
639.00	201.35
640.00	206.19
641.00	207.34
642.00	202.40
643.00	203.14
644.00	205.67
645.00	201.01
646.00	206.01
647.00	200.85
648.00	204.18
649.00	207.05
650.00	202.98
651.00	204.06
652.00	204.37
653.00	203.50
654.00	201.80
655.00	202.09
656.00	198.80
657.00	201.95
658.00	202.00
659.00	203.83
660.00	198.28
661.00	206.73
662.00	202.18
663.00	201.04
664.00	205.01
665.00	206.75
666.00	203.61
667.00	200.30
668.00	204.26
669.00	202.79
670.00	203.44
671.00	204.33
672.00	198.25
673.00	202.02
674.00	203.02
675.00	201.66
676.00	203.65
677.00	203.25
678.00	204.17
679.00	202.87
680.00	202.75
681.00	205.53
682.00	207.18
683.00	204.30
684.00	206.56
685.00	205.77
686.00	205.29
687.00	206.12
688.00	203.32
689.00	205.37
690.00	201.37
691.00	204.57
692.00	203.72
693.00	205.03
694.00	203.95
695.00	200.98
696.00	205.00
697.00	205.98
698.00	201.74
699.00	204.74
700.00	201.96
701.00	202.69
702.00	205.34
703.00	203.99
704.00	204.05
705.00	201.78
706.00	207.45
707.00	204.22
708.00	206.10
709.00	207.88
710.00	201.25
711.00	200.15
712.00	205.65
713.00	205.62
714.00	201.20
715.00	204.49
716.00	202.48
717.00	201.66
718.00	206.44
719.00	199.46
720.00	202.19
721.00	200.72
722.00	208.87
723.00	206.85
724.00	204.53
725.00	212.59
726.00	199.52
727.00	199.64
728.00	205.01
729.00	201.93
730.00	204.87
731.00	200.77
732.00	204.67
733.00	204.79
734.00	205.53
735.00	201.69
736.00	205.20
737.00	200.43
738.00	202.08
739.00	207.95
740.00	199.22
741.00	203.92
742.00	201.87
743.00	204.00
744.00	204.90
745.00	207.72
746.00	203.18
747.00	204.02
748.00	202.27
749.00	199.22
750.00	204.31
751.00	205.92
752.00	199.17
753.00	200.59
754.00	202.99
755.00	206.56
756.00	206.58
757.00	201.69
758.00	202.74
759.00	204.40
760.00	204.20
761.00	198.76
762.00	205.33
763.00	202.20
764.00	202.02
765.00	201.98
766.00	204.89
767.00	204.81
768.00	200.47
769.00	203.48
770.00	204.58
771.00	207.47
772.00	201.88
773.00	205.68
774.00	203.59
775.00	206.41
776.00	203.60
777.00	201.11
778.00	203.00
779.00	203.89
780.00	202.88
781.00	207.18
782.00	206.47
783.00	200.60
784.00	202.24
785.00	200.13
786.00	204.44
787.00	203.74
788.00	201.15
789.00	205.02
790.00	207.57
791.00	201.78
792.00	199.61
793.00	201.61
794.00	205.20
795.00	200.41
796.00	202.11
797.00	205.45
798.00	205.12
799.00	199.92
800.00	204.10
801.00	204.14
802.00	205.70
803.00	207.53
804.00	205.50
805.00	202.54
806.00	206.73
807.00	205.90
808.00	204.53
809.00	205.54
810.00	204.91
811.00	201.28
812.00	204.29
813.00	202.99
814.00	204.09
815.00	205.42
816.00	202.00
817.00	206.86
818.00	202.71
819.00	206.89
820.00	204.24
821.00	203.96
822.00	205.82
823.00	206.97
824.00	203.20
825.00	208.72
826.00	202.51
827.00	202.12
828.00	197.93
829.00	206.06
830.00	201.88
831.00	202.65
832.00	204.06
833.00	205.82
834.00	202.16
835.00	203.47
836.00	204.29
837.00	203.82
838.00	200.70
839.00	201.91
840.00	202.23
841.00	199.72
842.00	204.42
843.00	203.25
844.00	204.05
845.00	206.01
846.00	204.42
847.00	202.55
848.00	200.87
849.00	202.60
850.00	204.01
851.00	198.34
852.00	202.81
853.00	201.32
854.00	207.38
855.00	206.37
856.00	207.42
857.00	202.30
858.00	205.74
859.00	211.71
860.00	202.51
861.00	205.05
862.00	200.99
863.00	203.65
864.00	201.78
865.00	204.79
866.00	200.15
867.00	195.74
868.00	202.97
869.00	200.79
870.00	203.08
871.00	202.68
872.00	200.00
873.00	202.04
874.00	207.98
875.00	202.26
876.00	204.20
877.00	201.62
878.00	199.39
879.00	206.27
880.00	201.08
881.00	200.15
882.00	202.75
883.00	203.46
884.00	202.00
885.00	204.02
886.00	201.82
887.00	201.59
888.00	204.03
889.00	203.50
890.00	206.43
891.00	204.18
892.00	203.18
893.00	202.96
894.00	201.66
895.00	203.66
896.00	201.59
897.00	203.83
898.00	205.32
899.00	204.34
900.00	203.41
901.00	204.69
902.00	199.15
903.00	200.90
904.00	203.17
905.00	203.97
906.00	206.21
907.00	204.19
908.00	202.09
909.00	200.36
910.00	200.82
911.00	201.96
912.00	206.04
913.00	196.85
914.00	208.63
915.00	200.16
916.00	202.61
917.00	204.70
918.00	202.53
919.00	204.17
920.00	203.18
921.00	204.71
922.00	205.64
923.00	204.16
924.00	203.45
925.00	203.38
926.00	199.00
927.00	206.64
928.00	202.79
929.00	203.99
930.00	205.06
931.00	204.58
932.00	202.63
933.00	203.64
934.00	203.92
935.00	203.85
936.00	201.04
937.00	201.17
938.00	204.18
939.00	201.78
940.00	202.82
941.00	200.57
942.00	206.00
943.00	205.22
944.00	203.08
945.00	203.54
946.00	200.10
947.00	203.94
948.00	200.77
949.00	198.96
950.00	201.02
951.00	203.10
952.00	203.08
953.00	204.37
954.00	202.72
955.00	202.71
956.00	207.55
957.00	203.05
958.00	205.00
959.00	202.95
960.00	201.12
961.00	203.71
962.00	200.46
963.00	204.63
964.00	203.92
965.00	204.33
966.00	204.02
967.00	202.81
968.00	203.99
969.00	203.44
970.00	205.87
971.00	205.00
972.00	198.77
973.00	205.94
974.00	202.88
975.00	205.26
976.00	204.02
977.00	203.25
978.00	202.56
979.00	203.88
980.00	201.70
981.00	199.64
982.00	201.00
983.00	209.22
984.00	206.91
985.00	205.33
986.00	199.39
987.00	203.58
988.00	205.46
989.00	204.86
990.00	206.19
991.00	209.30
992.00	201.69
993.00	204.14
994.00	202.62
995.00	204.98
996.00	203.83
997.00	202.99
998.00	201.17
999.00	201.27
1000.00	205.98
>>>>>End Processed Spectral Data<<<<<
