SpectraSuite Data File
++++++++++++++++++++++++++++++++++++
Date: Tue Oct 18 14:26:37 CDT 2011
User: Helimak
Dark Spectrum Present: No
Reference Spectrum Present: No
Number of Sampled Component Spectra: 1
Spectrometers: USB2G37154
Integration Time (usec): 100000 (USB2G37154)
Spectra Averaged: 1 (USB2G37154)
Boxcar Smoothing: 0 (USB2G37154)
Correct for Electrical Dark: No (USB2G37154)
Strobe/Lamp Enabled: No (USB2G37154)
Correct for Detector Non-linearity: No (USB2G37154)
Correct for Stray Light: No (USB2G37154)
Number of Pixels in Processed Spectrum: 651
>>>>>Begin Processed Spectral Data<<<<<
350.00	200.76
351.00	204.65
352.00	198.42
353.00	203.83
354.00	201.16
355.00	200.99
356.00	200.28
357.00	202.40
358.00	202.21
359.00	204.57
360.00	203.60
361.00	204.05
362.00	202.51
363.00	200.99
364.00	203.22
365.00	201.40
366.00	204.41
367.00	203.98
368.00	200.12
369.00	202.88
370.00	204.05
371.00	202.20
372.00	201.40
373.00	205.98
374.00	201.49
375.00	203.20
376.00	201.90
377.00	204.57
378.00	202.90
379.00	202.39
380.00	205.00
381.00	205.71
382.00	204.14
383.00	210.24
384.00	206.87
385.00	204.35
386.00	200.09
387.00	203.41
388.00	202.19
389.00	204.28
390.00	204.68
391.00	209.14
392.00	204.16
393.00	203.24
394.00	207.02
395.00	206.29
396.00	201.91
397.00	203.76
398.00	204.02
399.00	207.31
400.00	200.73
401.00	204.14
402.00	203.75
403.00	204.18
404.00	203.32
405.00	204.39
406.00	203.99
407.00	204.34
408.00	208.46
409.00	204.37
410.00	205.78
411.00	205.14
412.00	202.00
413.00	202.09
414.00	204.48
415.00	204.44
416.00	205.00
417.00	208.38
418.00	204.84
419.00	203.47
420.00	207.04
421.00	207.57
422.00	208.39
423.00	204.85
424.00	205.85
425.00	208.99
426.00	199.12
427.00	208.03
428.00	202.92
429.00	206.68
430.00	202.84
431.00	201.56
432.00	210.26
433.00	211.53
434.00	206.14
435.00	203.43
436.00	206.47
437.00	208.16
438.00	207.13
439.00	210.61
440.00	206.07
441.00	207.78
442.00	201.35
443.00	206.73
444.00	203.61
445.00	206.11
446.00	205.49
447.00	209.30
448.00	204.85
449.00	208.91
450.00	207.68
451.00	202.79
452.00	199.84
453.00	205.22
454.00	205.72
455.00	204.29
456.00	202.42
457.00	207.04
458.00	207.32
459.00	205.75
460.00	200.53
461.00	204.58
462.00	205.43
463.00	203.86
464.00	202.02
465.00	211.34
466.00	206.48
467.00	205.18
468.00	202.96
469.00	208.61
470.00	206.37
471.00	204.04
472.00	209.34
473.00	204.33
474.00	207.24
475.00	202.83
476.00	203.16
477.00	207.75
478.00	204.54
479.00	204.50
480.00	205.61
481.00	203.43
482.00	210.73
483.00	205.41
484.00	206.19
485.00	204.97
486.00	204.68
487.00	206.26
488.00	206.98
489.00	204.98
490.00	202.06
491.00	203.90
492.00	207.30
493.00	202.00
494.00	204.19
495.00	204.69
496.00	205.74
497.00	203.49
498.00	205.79
499.00	206.98
500.00	204.61
501.00	207.98
502.00	205.00
503.00	205.85
504.00	204.69
505.00	206.70
506.00	202.63
507.00	207.55
508.00	205.21
509.00	204.00
510.00	202.23
511.00	207.98
512.00	205.27
513.00	203.21
514.00	203.60
515.00	205.41
516.00	206.99
517.00	207.01
518.00	207.60
519.00	202.87
520.00	207.26
521.00	203.92
522.00	202.87
523.00	202.24
524.00	203.04
525.00	208.21
526.00	205.18
527.00	206.50
528.00	208.41
529.00	208.45
530.00	202.82
531.00	206.40
532.00	204.14
533.00	207.45
534.00	203.22
535.00	203.90
536.00	202.78
537.00	203.61
538.00	204.81
539.00	208.62
540.00	206.16
541.00	203.89
542.00	202.18
543.00	204.91
544.00	203.01
545.00	205.11
546.00	203.07
547.00	201.26
548.00	201.23
549.00	202.97
550.00	208.57
551.00	204.00
552.00	204.22
553.00	204.54
554.00	203.50
555.00	202.40
556.00	208.33
557.00	209.02
558.00	203.08
559.00	206.40
560.00	204.48
561.00	205.76
562.00	205.15
563.00	198.80
564.00	203.07
565.00	204.18
566.00	204.49
567.00	206.96
568.00	204.05
569.00	203.12
570.00	204.91
571.00	204.30
572.00	200.03
573.00	208.50
574.00	208.99
575.00	199.48
576.00	204.41
577.00	204.06
578.00	201.02
579.00	206.30
580.00	205.73
581.00	204.99
582.00	205.98
583.00	206.50
584.00	206.15
585.00	203.93
586.00	210.10
587.00	202.09
588.00	201.04
589.00	203.29
590.00	204.79
591.00	204.84
592.00	202.48
593.00	199.65
594.00	207.01
595.00	205.22
596.00	204.10
597.00	201.71
598.00	201.94
599.00	203.14
600.00	201.92
601.00	209.98
602.00	204.69
603.00	208.17
604.00	203.82
605.00	204.14
606.00	205.45
607.00	202.97
608.00	202.20
609.00	205.04
610.00	205.40
611.00	203.18
612.00	204.71
613.00	202.57
614.00	202.29
615.00	200.11
616.00	203.75
617.00	203.00
618.00	204.69
619.00	204.87
620.00	207.20
621.00	203.61
622.00	206.23
623.00	207.69
624.00	200.66
625.00	207.17
626.00	206.91
627.00	205.21
628.00	201.43
629.00	200.42
630.00	205.78
631.00	199.45
632.00	205.05
633.00	206.68
634.00	205.27
635.00	202.00
636.00	203.45
637.00	203.15
638.00	202.88
639.00	204.96
640.00	208.56
641.00	202.51
642.00	203.41
643.00	202.19
644.00	204.57
645.00	207.26
646.00	207.02
647.00	201.11
648.00	201.50
649.00	203.93
650.00	204.28
651.00	208.18
652.00	209.99
653.00	201.93
654.00	204.53
655.00	203.48
656.00	202.77
657.00	204.18
658.00	206.00
659.00	208.31
660.00	204.34
661.00	204.57
662.00	208.01
663.00	207.98
664.00	209.46
665.00	200.84
666.00	204.02
667.00	206.63
668.00	207.08
669.00	201.37
670.00	201.26
671.00	209.16
672.00	209.89
673.00	203.97
674.00	208.08
675.00	204.76
676.00	204.84
677.00	203.42
678.00	203.44
679.00	200.32
680.00	205.29
681.00	204.27
682.00	204.70
683.00	205.21
684.00	207.53
685.00	206.86
686.00	203.99
687.00	204.11
688.00	203.11
689.00	206.38
690.00	204.01
691.00	206.18
692.00	199.80
693.00	205.33
694.00	202.98
695.00	203.99
696.00	204.00
697.00	205.84
698.00	204.69
699.00	200.82
700.00	202.85
701.00	202.39
702.00	206.00
703.00	204.66
704.00	204.64
705.00	202.45
706.00	198.10
707.00	206.04
708.00	202.39
709.00	203.03
710.00	204.01
711.00	198.98
712.00	201.13
713.00	201.27
714.00	206.98
715.00	203.54
716.00	204.32
717.00	203.12
718.00	202.23
719.00	204.47
720.00	202.90
721.00	200.90
722.00	199.00
723.00	201.79
724.00	202.70
725.00	211.54
726.00	204.64
727.00	204.62
728.00	204.06
729.00	202.74
730.00	205.61
731.00	202.64
732.00	199.09
733.00	202.58
734.00	203.94
735.00	204.08
736.00	199.47
737.00	207.83
738.00	206.44
739.00	203.49
740.00	201.98
741.00	203.04
742.00	201.91
743.00	204.02
744.00	206.21
745.00	206.69
746.00	203.65
747.00	202.61
748.00	205.08
749.00	202.24
750.00	204.52
751.00	203.51
752.00	203.94
753.00	202.74
754.00	200.57
755.00	203.16
756.00	203.44
757.00	203.81
758.00	205.49
759.00	204.08
760.00	201.60
761.00	204.52
762.00	202.09
763.00	206.14
764.00	203.00
765.00	203.19
766.00	201.19
767.00	203.03
768.00	200.30
769.00	201.79
770.00	203.39
771.00	202.45
772.00	201.73
773.00	203.66
774.00	203.75
775.00	207.73
776.00	203.77
777.00	200.55
778.00	207.00
779.00	208.90
780.00	209.14
781.00	205.24
782.00	200.63
783.00	204.36
784.00	203.79
785.00	200.17
786.00	199.43
787.00	203.01
788.00	201.82
789.00	213.00
790.00	205.12
791.00	204.03
792.00	199.26
793.00	205.71
794.00	200.80
795.00	204.37
796.00	206.62
797.00	202.06
798.00	205.97
799.00	204.98
800.00	199.98
801.00	199.43
802.00	206.79
803.00	206.51
804.00	204.14
805.00	204.02
806.00	205.00
807.00	202.02
808.00	204.35
809.00	202.70
810.00	206.63
811.00	200.17
812.00	204.98
813.00	204.61
814.00	204.13
815.00	204.39
816.00	202.44
817.00	206.32
818.00	206.90
819.00	203.82
820.00	203.92
821.00	199.98
822.00	205.07
823.00	202.37
824.00	201.96
825.00	209.14
826.00	203.34
827.00	204.17
828.00	205.96
829.00	202.54
830.00	204.98
831.00	204.54
832.00	200.51
833.00	205.23
834.00	198.77
835.00	202.72
836.00	202.62
837.00	202.48
838.00	201.90
839.00	203.91
840.00	198.20
841.00	203.29
842.00	208.78
843.00	205.39
844.00	203.15
845.00	205.84
846.00	202.73
847.00	201.54
848.00	201.52
849.00	203.05
850.00	204.32
851.00	203.33
852.00	201.62
853.00	204.01
854.00	202.34
855.00	205.28
856.00	206.76
857.00	203.92
858.00	202.95
859.00	207.22
860.00	205.60
861.00	207.02
862.00	203.70
863.00	203.24
864.00	209.91
865.00	204.86
866.00	201.12
867.00	201.37
868.00	205.99
869.00	203.32
870.00	204.03
871.00	206.78
872.00	201.89
873.00	202.69
874.00	202.45
875.00	204.80
876.00	204.07
877.00	202.76
878.00	204.37
879.00	204.02
880.00	203.98
881.00	203.73
882.00	204.66
883.00	202.12
884.00	199.00
885.00	207.78
886.00	202.56
887.00	200.78
888.00	206.06
889.00	201.68
890.00	207.69
891.00	203.54
892.00	204.36
893.00	204.56
894.00	204.16
895.00	201.64
896.00	200.31
897.00	197.92
898.00	201.11
899.00	202.46
900.00	202.92
901.00	202.22
902.00	204.94
903.00	203.62
904.00	201.76
905.00	199.06
906.00	205.84
907.00	203.31
908.00	204.32
909.00	205.58
910.00	200.97
911.00	201.02
912.00	203.21
913.00	205.62
914.00	202.31
915.00	205.95
916.00	202.18
917.00	205.86
918.00	202.13
919.00	199.99
920.00	204.17
921.00	205.15
922.00	201.90
923.00	200.93
924.00	202.76
925.00	204.19
926.00	206.01
927.00	202.61
928.00	211.71
929.00	197.16
930.00	204.00
931.00	202.94
932.00	204.37
933.00	201.33
934.00	204.24
935.00	200.89
936.00	202.82
937.00	200.04
938.00	205.78
939.00	202.20
940.00	201.74
941.00	204.87
942.00	206.91
943.00	201.86
944.00	200.42
945.00	203.49
946.00	202.48
947.00	205.97
948.00	204.59
949.00	203.04
950.00	204.64
951.00	206.96
952.00	205.99
953.00	198.56
954.00	202.38
955.00	205.45
956.00	201.86
957.00	203.17
958.00	205.18
959.00	200.97
960.00	205.04
961.00	205.93
962.00	201.55
963.00	202.23
964.00	199.93
965.00	202.32
966.00	204.26
967.00	202.31
968.00	206.03
969.00	204.95
970.00	204.95
971.00	205.94
972.00	202.83
973.00	203.74
974.00	203.35
975.00	202.05
976.00	210.08
977.00	201.96
978.00	204.63
979.00	201.66
980.00	203.42
981.00	204.52
982.00	203.97
983.00	203.28
984.00	202.69
985.00	203.52
986.00	205.00
987.00	201.14
988.00	204.15
989.00	204.13
990.00	203.70
991.00	207.95
992.00	205.92
993.00	203.99
994.00	203.89
995.00	206.75
996.00	203.80
997.00	202.22
998.00	212.09
999.00	206.35
1000.00	202.05
>>>>>End Processed Spectral Data<<<<<
