SpectraSuite Data File
++++++++++++++++++++++++++++++++++++
Date: Tue Oct 18 14:26:37 CDT 2011
User: Helimak
Dark Spectrum Present: No
Reference Spectrum Present: No
Number of Sampled Component Spectra: 1
Spectrometers: USB2G37154
Integration Time (usec): 100000 (USB2G37154)
Spectra Averaged: 1 (USB2G37154)
Boxcar Smoothing: 0 (USB2G37154)
Correct for Electrical Dark: No (USB2G37154)
Strobe/Lamp Enabled: No (USB2G37154)
Correct for Detector Non-linearity: No (USB2G37154)
Correct for Stray Light: No (USB2G37154)
Number of Pixels in Processed Spectrum: 651
>>>>>Begin Processed Spectral Data<<<<<
350.00	201.17
351.00	204.31
352.00	203.47
353.00	199.86
354.00	202.96
355.00	201.06
356.00	203.99
357.00	204.99
358.00	204.47
359.00	200.49
360.00	205.83
361.00	201.91
362.00	201.87
363.00	202.50
364.00	203.95
365.00	205.00
366.00	204.33
367.00	205.00
368.00	204.45
369.00	206.26
370.00	201.02
371.00	203.57
372.00	204.09
373.00	200.78
374.00	205.66
375.00	202.40
376.00	204.80
377.00	206.07
378.00	207.43
379.00	205.07
380.00	203.71
381.00	199.29
382.00	200.38
383.00	204.74
384.00	204.83
385.00	206.43
386.00	201.99
387.00	205.72
388.00	203.88
389.00	204.11
390.00	199.77
391.00	202.66
392.00	202.46
393.00	204.93
394.00	203.82
395.00	209.84
396.00	205.09
397.00	200.99
398.00	204.99
399.00	204.16
400.00	206.92
401.00	202.52
402.00	205.59
403.00	206.28
404.00	205.73
405.00	207.82
406.00	206.00
407.00	204.58
408.00	206.90
409.00	204.12
410.00	204.98
411.00	202.07
412.00	205.48
413.00	203.12
414.00	206.12
415.00	208.74
416.00	205.04
417.00	205.62
418.00	202.21
419.00	208.11
420.00	203.71
421.00	205.82
422.00	204.56
423.00	209.67
424.00	205.80
425.00	206.15
426.00	204.51
427.00	205.12
428.00	203.69
429.00	208.15
430.00	202.11
431.00	203.51
432.00	212.10
433.00	205.88
434.00	207.01
435.00	204.71
436.00	204.01
437.00	206.05
438.00	201.98
439.00	205.35
440.00	203.92
441.00	209.24
442.00	204.73
443.00	202.33
444.00	203.34
445.00	207.13
446.00	207.97
447.00	208.74
448.00	204.95
449.00	206.05
450.00	203.32
451.00	204.98
452.00	203.25
453.00	203.82
454.00	203.79
455.00	207.43
456.00	203.79
457.00	202.24
458.00	204.53
459.00	205.16
460.00	206.78
461.00	204.65
462.00	208.12
463.00	206.14
464.00	204.97
465.00	208.33
466.00	209.26
467.00	205.37
468.00	208.91
469.00	206.35
470.00	203.93
471.00	203.89
472.00	206.60
473.00	206.62
474.00	207.80
475.00	205.04
476.00	207.03
477.00	205.15
478.00	203.28
479.00	201.92
480.00	203.66
481.00	208.13
482.00	206.01
483.00	207.85
484.00	205.70
485.00	206.07
486.00	206.43
487.00	203.79
488.00	198.63
489.00	203.96
490.00	205.94
491.00	204.83
492.00	204.85
493.00	204.12
494.00	204.18
495.00	202.70
496.00	208.11
497.00	206.44
498.00	201.98
499.00	203.93
500.00	203.63
501.00	205.07
502.00	205.00
503.00	204.63
504.00	203.64
505.00	206.14
506.00	203.30
507.00	207.15
508.00	205.70
509.00	208.17
510.00	206.77
511.00	206.00
512.00	205.72
513.00	201.56
514.00	204.07
515.00	205.71
516.00	206.06
517.00	201.70
518.00	204.58
519.00	204.73
520.00	204.88
521.00	203.23
522.00	204.30
523.00	204.99
524.00	204.17
525.00	203.11
526.00	207.25
527.00	205.44
528.00	204.15
529.00	207.37
530.00	203.11
531.00	204.02
532.00	204.88
533.00	202.29
534.00	204.33
535.00	207.13
536.00	202.60
537.00	203.56
538.00	202.73
539.00	201.12
540.00	204.83
541.00	204.89
542.00	201.92
543.00	205.73
544.00	209.09
545.00	202.41
546.00	202.63
547.00	205.14
548.00	202.39
549.00	205.40
550.00	205.34
551.00	201.99
552.00	205.64
553.00	204.00
554.00	205.29
555.00	206.99
556.00	202.69
557.00	203.29
558.00	203.70
559.00	202.49
560.00	205.94
561.00	202.69
562.00	208.05
563.00	205.84
564.00	201.95
565.00	205.54
566.00	209.24
567.00	204.10
568.00	200.96
569.00	204.97
570.00	207.77
571.00	209.75
572.00	206.88
573.00	208.34
574.00	205.13
575.00	203.88
576.00	200.43
577.00	202.27
578.00	202.52
579.00	204.40
580.00	206.04
581.00	200.92
582.00	203.77
583.00	204.52
584.00	203.32
585.00	204.98
586.00	204.39
587.00	203.06
588.00	206.03
589.00	204.62
590.00	205.67
591.00	205.85
592.00	196.36
593.00	204.30
594.00	207.04
595.00	203.87
596.00	204.09
597.00	206.70
598.00	204.26
599.00	204.48
600.00	204.69
601.00	205.06
602.00	204.01
603.00	203.95
604.00	202.70
605.00	201.65
606.00	204.78
607.00	201.49
608.00	206.03
609.00	200.00
610.00	204.92
611.00	203.20
612.00	201.99
613.00	202.82
614.00	203.55
615.00	201.81
616.00	201.08
617.00	205.99
618.00	204.97
619.00	205.80
620.00	205.19
621.00	204.26
622.00	206.25
623.00	206.91
624.00	205.25
625.00	203.98
626.00	201.89
627.00	202.95
628.00	202.50
629.00	205.57
630.00	206.00
631.00	200.84
632.00	202.79
633.00	204.03
634.00	202.79
635.00	203.96
636.00	199.36
637.00	199.67
638.00	203.86
639.00	199.70
640.00	201.60
641.00	200.05
642.00	202.30
643.00	200.44
644.00	202.36
645.00	203.57
646.00	205.08
647.00	203.47
648.00	200.54
649.00	203.46
650.00	202.10
651.00	201.23
652.00	200.57
653.00	203.35
654.00	201.24
655.00	201.57
656.00	203.19
657.00	204.98
658.00	206.00
659.00	202.88
660.00	203.71
661.00	202.66
662.00	205.91
663.00	204.06
664.00	204.79
665.00	202.93
666.00	204.08
667.00	204.19
668.00	204.13
669.00	203.23
670.00	204.09
671.00	198.11
672.00	203.70
673.00	201.02
674.00	202.94
675.00	204.47
676.00	201.03
677.00	205.19
678.00	200.10
679.00	202.87
680.00	205.51
681.00	210.16
682.00	207.18
683.00	205.02
684.00	206.35
685.00	205.79
686.00	204.90
687.00	201.89
688.00	202.10
689.00	203.28
690.00	196.92
691.00	205.79
692.00	201.67
693.00	202.78
694.00	204.94
695.00	205.00
696.00	203.00
697.00	204.86
698.00	201.93
699.00	203.84
700.00	204.35
701.00	204.39
702.00	204.95
703.00	207.76
704.00	205.96
705.00	203.31
706.00	203.71
707.00	205.49
708.00	202.37
709.00	201.79
710.00	205.53
711.00	203.77
712.00	202.25
713.00	205.47
714.00	202.15
715.00	200.35
716.00	201.93
717.00	205.72
718.00	201.61
719.00	203.72
720.00	202.85
721.00	202.61
722.00	201.37
723.00	206.35
724.00	200.52
725.00	210.89
726.00	205.11
727.00	208.77
728.00	202.99
729.00	201.79
730.00	205.11
731.00	205.33
732.00	202.97
733.00	200.94
734.00	204.94
735.00	201.14
736.00	206.40
737.00	203.85
738.00	204.80
739.00	209.05
740.00	204.17
741.00	202.02
742.00	204.95
743.00	203.01
744.00	201.91
745.00	207.64
746.00	199.90
747.00	206.52
748.00	202.03
749.00	206.45
750.00	204.16
751.00	202.74
752.00	202.85
753.00	202.00
754.00	201.63
755.00	206.35
756.00	199.26
757.00	208.49
758.00	202.32
759.00	202.45
760.00	202.91
761.00	200.19
762.00	200.11
763.00	203.99
764.00	201.02
765.00	196.21
766.00	201.08
767.00	200.69
768.00	202.54
769.00	201.63
770.00	199.75
771.00	204.32
772.00	200.03
773.00	203.23
774.00	201.74
775.00	203.91
776.00	206.21
777.00	201.03
778.00	202.01
779.00	205.17
780.00	197.86
781.00	203.49
782.00	202.74
783.00	202.29
784.00	207.15
785.00	203.32
786.00	199.00
787.00	202.72
788.00	201.29
789.00	205.99
790.00	202.24
791.00	201.32
792.00	200.39
793.00	203.18
794.00	202.69
795.00	202.55
796.00	202.14
797.00	198.88
798.00	205.24
799.00	204.04
800.00	203.63
801.00	200.75
802.00	206.13
803.00	205.87
804.00	203.59
805.00	207.09
806.00	205.17
807.00	202.95
808.00	203.54
809.00	204.84
810.00	203.64
811.00	204.92
812.00	204.75
813.00	205.62
814.00	206.10
815.00	202.16
816.00	203.69
817.00	205.11
818.00	208.09
819.00	201.91
820.00	202.49
821.00	204.09
822.00	205.10
823.00	204.59
824.00	206.17
825.00	206.97
826.00	200.78
827.00	204.35
828.00	202.13
829.00	205.26
830.00	204.43
831.00	204.51
832.00	204.89
833.00	205.85
834.00	206.06
835.00	201.62
836.00	201.54
837.00	202.06
838.00	201.90
839.00	198.05
840.00	207.62
841.00	201.27
842.00	203.83
843.00	203.35
844.00	203.76
845.00	204.01
846.00	202.33
847.00	203.67
848.00	203.88
849.00	199.43
850.00	202.90
851.00	202.93
852.00	202.69
853.00	209.85
854.00	200.90
855.00	208.63
856.00	207.68
857.00	205.63
858.00	205.67
859.00	202.07
860.00	204.18
861.00	204.46
862.00	203.49
863.00	200.41
864.00	206.25
865.00	207.98
866.00	202.24
867.00	206.99
868.00	202.98
869.00	204.51
870.00	200.94
871.00	203.06
872.00	203.10
873.00	202.36
874.00	205.59
875.00	199.50
876.00	201.31
877.00	205.36
878.00	206.55
879.00	204.13
880.00	204.06
881.00	202.80
882.00	203.44
883.00	201.78
884.00	206.00
885.00	204.72
886.00	203.45
887.00	203.19
888.00	203.20
889.00	202.56
890.00	204.36
891.00	204.90
892.00	203.85
893.00	205.79
894.00	199.09
895.00	203.90
896.00	203.49
897.00	202.98
898.00	203.06
899.00	200.25
900.00	207.61
901.00	203.43
902.00	202.61
903.00	205.92
904.00	203.84
905.00	202.97
906.00	204.59
907.00	202.87
908.00	202.24
909.00	201.70
910.00	200.46
911.00	204.95
912.00	198.88
913.00	204.18
914.00	198.86
915.00	205.45
916.00	201.84
917.00	202.69
918.00	203.48
919.00	204.32
920.00	202.11
921.00	201.70
922.00	200.00
923.00	201.84
924.00	203.26
925.00	202.00
926.00	200.98
927.00	203.71
928.00	202.26
929.00	206.47
930.00	202.64
931.00	204.12
932.00	201.17
933.00	205.82
934.00	200.88
935.00	199.42
936.00	203.33
937.00	202.19
938.00	206.74
939.00	204.76
940.00	197.44
941.00	203.11
942.00	207.88
943.00	202.58
944.00	205.80
945.00	210.02
946.00	200.96
947.00	202.01
948.00	201.70
949.00	202.54
950.00	203.50
951.00	202.96
952.00	203.92
953.00	200.65
954.00	200.90
955.00	203.59
956.00	206.98
957.00	206.79
958.00	204.33
959.00	203.96
960.00	204.37
961.00	201.05
962.00	205.96
963.00	203.13
964.00	204.55
965.00	200.84
966.00	204.21
967.00	205.49
968.00	203.97
969.00	201.48
970.00	207.52
971.00	203.30
972.00	204.23
973.00	206.34
974.00	202.48
975.00	201.39
976.00	205.21
977.00	202.56
978.00	201.52
979.00	201.85
980.00	204.45
981.00	200.40
982.00	203.86
983.00	203.57
984.00	207.48
985.00	204.50
986.00	201.96
987.00	210.14
988.00	203.98
989.00	204.36
990.00	206.15
991.00	204.72
992.00	202.12
993.00	201.24
994.00	199.95
995.00	204.37
996.00	207.12
997.00	209.52
998.00	204.01
999.00	205.08
1000.00	201.33
>>>>>End Processed Spectral Data<<<<<
